time,y1,y2,y3
0.006072721000236925,3107,907,2722
0.008834850999846822,4095,4095,4095
0.011567940000531962,3840,4095,4095
0.014300946000730619,2332,4095,4095
0.017024242999468697,1034,4095,4095
0.019755623001401545,448,4095,4095
0.022487671001726994,751,4095,4095
0.025214509001671104,3454,4095,4095
0.027923264999117237,4095,4095,4095
0.030617854001320666,4095,4095,4095
0.033313233998342184,2867,4095,4095
0.03600507300143363,1471,4095,4095
0.038697370000591036,461,4095,4095
0.04138954199879663,455,4095,4095
0.04407942300167633,2273,4095,4095
0.046774595000897534,4053,4095,4095
0.04946514200128149,4095,2336,3099
0.05218193900145707,4095,4095,4095
0.054876570000487845,2675,4095,4095
0.05759315799878095,1615,4095,4095
0.060293331000139005,987,4095,4095
0.06298975300160237,2000,4095,3982
0.06568234199949075,4095,1553,2614
0.06837092999921879,4095,4095,4095
0.07106181099879905,4095,4095,4095
0.07375448300081189,4095,4095,4095
0.07644227999844588,4095,4095,4095
0.07913290999931633,2725,4095,4095
0.08182199899965781,1872,4095,4095
0.08450929600076051,4095,4095,4095
0.08719917700000224,4095,4095,4095
0.08988643200063962,4095,4095,4095
0.0925763539999025,2654,4095,4095
0.0952712350008369,583,2023,2587
0.09796336499857716,443,4095,4095
0.10065541199946892,438,4095,4095
0.1033470850015874,413,2815,3344
0.10603742300008889,2365,1076,2755
0.10872613700121292,3712,4095,4095
0.11141393399884691,3079,4095,4095
0.114102190000267,1904,4095,4095
0.11679232000096818,752,4095,4095
0.11948045100143645,445,4095,4095
0.12216953900133376,538,4095,4095
0.1248601699990104,2960,4095,4095
0.12755209199895035,4095,4095,4095
0.13024226400011685,4095,4095,4095
0.13293210299889324,3427,4095,4095
0.13562323299993295,1348,3830,3786
0.13831515600031707,706,4095,4095
0.14100761900044745,451,4095,4095
0.14369712500047171,1984,4095,4095
0.14638779700180748,3745,3216,3390
0.14907976099857478,4095,4095,4095
0.15176864100067178,4095,4095,4095
0.15445902200008277,2609,4095,4095
0.1571481520004454,1274,4095,4095
0.1598396990011679,460,4095,4095
0.16252895499928854,941,4095,4095
0.1652158770011738,3815,4095,4095
0.16790563199901953,4095,4095,4095
0.17059334599980502,4095,4095,4095
0.17328026800169027,3488,4095,4095
0.1759697320012492,1886,4095,4095
0.17865915400034282,724,4095,4095
0.1813512430016999,463,4095,4095
0.18404091499905917,2406,4095,4095
0.1867310039997392,4095,4095,4095
0.18942005099961534,4095,2679,3485
0.19211051499951282,4095,4095,4095
0.19480281199867022,2581,4095,4095
0.1974900669993076,1264,4095,4095
0.2002107389998855,462,4095,4095
0.2029018700013694,1289,4095,4095
0.20559345899891923,3295,3344,3538
0.20828158899894333,4095,4095,4095
0.2109718450010405,4095,4095,4095
0.21367718300098204,3472,4095,4095
0.21636523000051966,1874,4095,4095
0.21905623600105173,752,4095,4095
0.22174694999921485,558,4095,4095
0.22443774700150243,3017,4095,4095
0.2271332939999411,4095,4095,4095
0.22982450800191145,4095,4095,4095
0.23251534700102638,4095,4095,4095
0.23520597700189683,2506,4095,3840
0.23789677400054643,1221,4095,4095
0.24058103000061237,463,4095,4095
0.24327199300023494,1142,2227,3071
0.24596258200108423,3708,400,2541
0.248650795998401,4095,4095,4095
0.25134121800147113,4095,4095,4095
0.2540337649988942,3387,4095,4095
0.25672710399885545,1739,4095,4095
0.25941802599845687,650,4095,4095
0.2621069900014845,717,4095,4095
0.2647959540008742,3472,4095,4095
0.2674860430015542,4095,4095,4095
0.2701759650008171,4095,4095,4095
0.2728634699997201,4044,4095,4095
0.2755527670014999,1779,1792,3111
0.278242106000107,1070,4095,4095
0.2809294860016962,459,4095,4095
0.28361861699886504,1455,4095,4095
0.286310538998805,3975,2369,3130
0.2890022530009446,4095,4095,4095
0.29169338299834635,4095,4095,4095
0.2943838470018818,3059,4095,4095
0.29707126900029834,1535,4095,4095
0.2997631079997518,529,4095,4095
0.30245257199931075,889,4095,4095
0.3051412860004348,3786,4095,4095
0.3078315409984498,4095,4095,4095
0.31052125499991234,4095,4095,4095
0.31320909400164965,3725,4095,4095
0.3158997239988821,1742,4095,4095
0.31859148000148707,883,4095,4095
0.3212805270013632,463,4095,4095
0.3239701989987225,2308,4095,4095
0.3266608289995929,4095,4095,3744
0.32934912600103416,4095,4095,4095
0.332039339999028,4095,4095,4095
0.3347278040018864,2672,4095,4095
0.33741864300100133,1307,4095,4095
0.34010935699916445,461,4095,4095
0.34279965400128276,1107,4095,4095
0.34549170099853654,4080,4095,4095
0.3482122060013353,4095,4095,4095
0.3509049620006408,4095,4095,4095
0.3536061759987206,3426,4095,4095
0.3562962639989564,1763,4095,4095
0.3589911029994255,590,4095,4095
0.36168710900165024,473,4095,4095
0.3643778639998345,2630,4095,4095
0.3670674950008106,4095,4095,4095
0.3697591669988469,4095,4095,4095
0.3724475050003093,3949,4095,4095
0.3751384280003549,2277,4095,4095
0.3778301829988777,961,4095,4095
0.3805206469987752,437,4095,4095
0.38321186100074556,826,2608,2954
0.385901408000791,3246,725,2462
0.3885907049989328,4095,4095,4095
0.3912816269985342,4095,4095,4095
0.39397013200141373,2949,4095,4095
0.39665913800126873,1476,4095,4095
0.39935010200133547,465,4095,4095
0.4020376490007038,532,4095,4095
0.404725321001024,3008,4095,4095
0.4074176600006467,4095,4095,4095
0.4101067070005229,4095,4095,4095
0.41279792099885526,3661,4095,4095
0.41548763399987365,1535,688,2618
0.4181787230008922,819,4095,4095
0.42086822900091647,448,4095,4095
0.4235579839987622,1184,3639,4095
0.42624824000085937,3568,1501,2905
0.42893537000054494,4095,4095,4095
0.4316280839993851,4095,4095,4095
0.43431625599987456,2800,4095,4095
0.4370064700015064,1402,4095,4095
0.439694808999775,463,4095,4095
0.44239185599872144,745,4095,4095
0.4450876939990849,3504,4095,4095
0.44777815799898235,4095,4095,4095
0.45046874699983164,4095,4095,4095
0.45316125200042734,3629,4095,4095
0.45585080000091693,1493,4095,4095
0.45854192999831866,800,4095,4095
0.4612296019986388,454,4095,4095
0.4639206079991709,2111,4095,4095
0.46661069599940674,3953,3674,3499
0.46929749400078435,4095,4095,4095
0.4719901239986939,4095,4095,4095
0.4746802129993739,2640,4095,4095
0.47736992700083647,1277,4095,4095
0.48006143200109364,457,4095,4095
0.48275581300185877,978,4095,4095
0.4854440679991967,3842,4095,4095
0.4881342400003632,4095,4095,4095
0.49082903700036695,4095,4095,4095
0.49355004300014116,3342,4095,4095
0.4962436319983681,1664,4095,4095
0.49893517899909057,481,4095,4095
0.5016263090001303,457,4095,4095
0.5043143149996467,2358,4095,4095
0.5070046949986136,3870,4095,4095
0.5096965759985324,4067,2652,3200
0.5123877059995721,3771,4095,4095
0.5150773780005693,2166,4095,4095
0.5177667589996418,849,4095,4095
0.5204530560004059,447,4095,4095
0.5231437280017417,1103,4095,4095
0.525833733001491,3034,2089,2713
0.528522739001346,4095,4095,4095
0.5312127020006301,4095,4095,4095
0.5339006249996601,2827,4095,4095
0.5365924629986694,1407,4095,4095
0.5392838439984189,453,4095,4095
0.5419733909984643,477,4095,4095
0.5446661460009636,2734,4095,4095
0.5473564019994228,4095,4095,4095
0.5500459909999336,4095,4095,4095
0.5527334959988366,3551,4095,4095
0.5554241270001512,1455,2640,3211
0.5581146740005352,695,4095,4095
0.5608033460011939,445,4095,4095
0.5634943930017471,925,2657,3199
0.5661853150013485,3247,643,2640
0.5688739040015207,4095,4095,4095
0.571565575999557,4095,4095,4095
0.5742540809987986,2721,4095,4095
0.576942837000388,1415,4095,4095
0.5796333840007719,497,4095,4095
0.5823239310011559,819,4095,4095
0.585014353000588,3738,4095,4095
0.5877046919995337,4095,4095,4095
0.5903942810000444,4095,4095,4095
0.5930813279992435,4095,4095,4095
0.5957766249994165,3275,2635,3339
0.5984789219983213,2967,4095,4095
0.6011712190011167,2226,4095,4095
0.603861642000993,4095,4095,4095
0.6065553549997276,4095,2813,3254
0.6092459860010422,4095,4095,4095
0.6119373660003475,4095,4095,4095
0.6146268720003718,2802,4095,4095
0.6173170440015383,1019,4095,4095
0.6200087990000611,439,4095,4095
0.6227008050009317,496,4095,4095
0.6253916019995813,2659,4095,4095
0.6280820239990135,3854,4095,4095
0.6307716539995454,3429,4095,4095
0.6334662849985762,2169,4095,4095
0.6361975820000225,887,4095,4095
0.6388944210011687,448,4095,4095
0.6416178430008586,447,4095,4095
0.6443110990003333,1937,4095,4095
0.6470024369991734,3255,4095,4095
0.6496931510009745,3567,2403,3136
0.6523827400014852,3617,4095,4095
0.6550722870015306,2235,4095,4095
0.6577633759989112,1011,4095,4095
0.6604522560010082,453,4095,4095
0.6631424699990021,1242,4095,4095
0.6658341840011417,3149,2621,2875
0.668522022999241,4095,4095,4095
0.6712126530001115,4095,4095,4095
0.6739100340018922,3222,4095,4095
0.6766001219984901,1638,4095,4095
0.6792927110000164,545,4095,4095
0.6819832580004004,511,4095,4095
0.6846725549985422,2864,4095,4095
0.6873609360009141,4095,4095,4095
0.6900510250015941,4095,4095,4095
0.6927410720018088,3857,4095,4095
0.6954318690004584,2102,3878,3447
0.6981239160013502,1010,4095,4095
0.7008122549996187,461,4095,4095
0.7035008849998121,1098,2415,3182
0.7061906820017612,3503,497,2609
0.7088820210010454,4095,4095,4095
0.7115739020009642,4095,4095,4095
0.7142646569991484,3115,4095,4095
0.7169524960008857,1591,4095,4095
0.7196427509989007,547,4095,4095
0.7223325070008286,697,4095,4095
0.7250203869989491,3437,4095,4095
0.7277108509988466,4095,4095,4095
0.7304059820016846,4095,4095,4095
0.733093694998388,3822,4095,4095
0.735783325999364,1699,2087,3184
0.7384719149995362,997,4095,4095
0.7411627949986723,458,4095,4095
0.7438547169986123,1762,4095,4095
0.7465438889994402,3911,2480,3223
0.7492321450008603,4095,4095,4095
0.7519241090012656,4095,4095,4095
0.7546159890007402,3015,4095,4095
0.7573037030015257,1577,4095,4095
0.7599926670009154,575,4095,4095
0.7626817550008127,964,4095,4095
0.7653711769999063,3830,4095,4095
0.768061057999148,4095,4095,4095
0.7707506879996799,4095,4095,4095
0.7734401519992389,3703,4095,4095
0.7761319909986923,1874,4095,4095
0.7788237460008531,934,4095,4095
0.7815522519995284,463,4095,4095
0.7842470909999975,2387,4095,4095
0.78693863800072,4095,4095,3889
0.789631185001781,4095,3648,3542
0.7923202739984845,4095,4095,4095
0.7950114459999895,2679,4095,4095
0.7977017010016425,1343,4095,4095
0.8003891650005244,466,4095,4095
0.8030779619984969,1226,4095,4095
0.8057692590009538,3775,4095,4095
0.8084580979993916,4095,4095,4095
0.8111493540018273,4095,4095,4095
0.8138383590012381,3399,4095,4095
0.8165292400008184,1762,4095,4095
0.8192198280012235,630,4095,4095
0.8219089999984135,490,4095,4095
0.8245994230019278,2701,4095,4095
0.8272902200005774,4095,4095,4095
0.8299798500011093,4095,4095,4095
0.8326736890012398,3933,4095,4095
0.8353713610013074,2321,4095,4095
0.8380671580016497,1040,4095,4095
0.840756371999305,450,4095,4095
0.8434481690019311,938,2409,3052
0.8461368409989518,3328,430,2485
0.8488261800011969,4095,4095,4095
0.8515139359988098,4095,4095,4095
0.8542154409988143,2966,4095,4095
0.8569185710002785,1519,4095,4095
0.8596452849997149,463,4095,4095
0.8623689160012873,592,4095,4095
0.8650607550007408,3280,4095,4095
0.8677565930011042,4095,4095,4095
0.8704528070011293,4095,4095,4095
0.8731458959991869,3497,4095,4095
0.8758374429999094,1406,1987,3159
0.878529907000484,688,4095,4095
0.881222454001545,452,4095,4095
0.883916375998524,1566,4095,4095
0.8866082569984428,3436,2593,3232
0.8892987619983614,4095,4095,4095
0.8919902679990628,3954,4095,4095
0.8946804400002293,2413,4095,4095
0.8973702789990057,1088,4095,4095
0.900063034001505,448,4095,4095
0.9027541229988856,719,4095,4095
0.9054433370001789,3433,4095,4095
0.9081353840010706,4095,4095,4095
0.9108305560002918,4095,4095,4095
0.9135506029997487,3087,4095,4095
0.9162466080015292,1445,4095,4095
0.9189406139994389,473,4095,4095
0.9216333689983003,451,4095,4095
0.924323541999911,2111,4095,4095
0.9270153389988991,3494,4095,3914
0.9297058019983524,4067,2930,3520
0.9323987249990751,3623,4095,4095
0.9350903129998187,2147,4095,4095
0.9377810270016198,876,4095,4095
0.9404660740001418,448,4095,4095
0.9431574549998913,1036,4095,4095
0.9458517519997258,3132,4095,3888
0.9485591320008098,4095,4095,4095
0.9512497629984864,4095,4095,4095
0.9539427679992514,2819,4095,4095
0.9566400240000803,1442,4095,4095
0.9593312379984127,461,4095,4095
0.9620230350010388,470,4095,4095
0.9647153320001962,2559,4095,4095
0.9674097540009825,4095,4095,4095
0.9701034680001612,3811,4095,4095
0.9727933479989588,3553,4095,4095
0.9754829789999349,2039,4095,4048
0.9781729839996842,782,4095,4095
0.980863490000047,445,4095,4095
0.9835550780007907,860,2319,3153
0.9862451250010054,3166,305,2537
0.9889340059999085,4095,4095,4095
0.9916263859995524,4095,4095,4095
0.9943171839986462,2589,4095,4095
0.9970076889985648,1235,4095,4095
0.999698111001635,450,4095,4095
1.002438366998831,511,4095,4095
1.0051544550005929,2864,4095,4095
1.0078484609985026,4095,4095,4095
1.0105401750006422,4095,4095,4095
1.0132295969997358,3059,4095,4095
1.0159213520018966,1046,2302,3236
1.0186112330011383,464,4095,4095
1.0213000719995762,448,4095,4095
1.0239916600003198,1530,4095,4095
1.0266820830001961,3143,2748,3243
1.0293716710002627,4095,4095,4095
1.0320636770011333,3530,4095,4095
1.0347845569995116,2097,4095,4095
1.0374842290002562,788,4095,4095
1.0402966100009507,446,4095,4095
1.0429938660017797,742,4095,4095
1.0456841209997947,3408,4095,4095
1.0483739180017437,4095,4095,4095
1.0510637570005201,3997,4095,4095
1.053772346000187,2594,4095,4095
1.056469017999916,1266,4095,4095
1.0591640230013581,449,4095,4095
1.0618544460012345,448,4095,4095
1.0645428259995242,2151,4095,4095
1.0672334560003947,3346,4095,4095
1.0699224620002497,3398,2631,3254
1.0726122589985607,3344,4095,4095
1.0753024309997272,1791,4095,4095
1.0779906030002167,511,4095,4095
1.0806785669992678,448,4095,4095
1.0833694059983827,940,4095,4095
1.08606628599955,2751,2001,2716
1.0887549580002087,4095,4095,4095
1.0914454640005715,3857,4095,4095
1.0941341360012302,2535,4095,4095
1.0968227660014236,1355,4095,4095
1.099512438999227,483,4095,4095
1.1022020269992936,623,4095,4095
1.1048918240012426,3396,4095,4095
1.1075843299986445,4095,4095,4095
1.1102716269997472,4095,4095,4095
1.112959215999581,4095,4095,4095
1.1156502209996688,3463,2160,2654
1.1183376020017022,3246,4095,4095
1.1210253989993362,2008,4095,4095
1.1237138210017292,2390,2631,3213
1.1264036180000403,4095,645,2643
1.12909258199943,4095,4095,4095
1.1317814210015058,3475,4095,4095
1.1344677589986532,1671,4095,4095
1.137157182001829,446,4095,4095
1.1398490620013035,432,4095,4095
1.142538609001349,462,4095,4095
1.1452269900000829,1914,4095,4095
1.1479149529986898,3152,4095,4095
1.1506022920002579,2855,4095,4095
1.1532901309983572,1986,4095,4095
1.1559819700014486,384,2480,3274
1.1586703920002037,447,4095,4095
1.1613587719984935,445,4095,4095
1.16404952800076,1406,4095,4095
1.1667379919999803,3018,2719,3257
1.1694263300014427,4095,4095,4095
1.172117835998506,3495,4095,4095
1.1748078829987207,2106,4095,4095
1.17749526300031,832,4095,4095
1.180233851999219,448,4095,4095
1.1829256490018452,717,4095,4095
1.1856165720018907,3434,4095,4095
1.1883066189984675,4095,4095,4095
1.190994831998978,4095,4095,4095
1.1936863379996794,2791,4095,4095
1.196374384999217,1334,4095,4095
1.1990628899984586,457,4095,4095
1.201753646000725,449,4095,4095
1.2044419849989936,2110,4095,4095
1.207131240000308,3502,4095,3961
1.2098197039995284,3791,3133,3602
1.2125072509988968,3518,4095,4095
1.2151949649996823,2041,4095,4095
1.2178835949998756,765,4095,4095
1.2205714759984403,447,4095,4095
1.223258772999543,1005,4095,4095
1.225945819998742,3248,4095,3935
1.2286335749995487,4095,4095,4095
1.2313230389991077,4095,4095,4095
1.2340146280002955,2752,4095,4095
1.236746549999225,1374,4095,4095
1.2394405140003073,454,4095,4095
1.242131769999105,466,4095,4095
1.244821399999637,2559,4095,4095
1.2475121550014592,4095,4095,4095
1.250202368999453,3808,4095,4095
1.2528907080013596,3504,4095,4095
1.2555786720004107,1975,4095,4095
1.2582690519993776,727,4095,4095
1.2609568490006495,448,4095,4095
1.2636463130002085,889,2257,3114
1.2663385269988794,3288,336,2515
1.2690284490017802,4095,4095,4095
1.2717192050004087,4095,4095,4095
1.2744095849993755,2681,4095,4095
1.2770985489987652,1325,4095,4095
1.279787554001814,457,4095,4095
1.2824783100004424,560,4095,4095
1.2851655650010798,3249,4095,4095
1.2878552789989044,4095,4095,4095
1.2905437010012974,4095,4095,4095
1.2932310819996928,3473,4095,4095
1.2959217950010498,1379,1074,2806
1.2986138419983035,657,4095,4095
1.3013039729994489,448,4095,4095
1.30399410300015,1243,4095,4095
1.3066859840000689,3571,2057,3125
1.3093748229985067,4095,4095,4095
1.312063286000921,4095,4095,4095
1.3147505000015371,2464,4095,4095
1.3174380890013708,1120,4095,4095
1.3201270530007605,451,4095,4095
1.3228154749995156,691,4095,4095
1.3255029799984186,3466,4095,4095
1.3282339860015782,4095,4095,4095
1.330925741000101,4095,4095,4095
1.333616288000485,3199,4095,4095
1.3363057520000439,1078,4095,4095
1.3389953410005546,474,4095,4095
1.3416836799988232,451,4095,4095
1.3443727269986994,2087,4095,4095
1.3470641909989354,3670,4095,3681
1.3497522789984941,4095,4095,4095
1.3524407850018179,3733,4095,4095
1.3551291650001076,2192,4095,4095
1.3578173790010624,882,4095,4095
1.3605078850014252,441,4095,4095
1.3631993070011958,948,4095,4095
1.3658914369989361,3789,4095,4095
1.368579193000187,4095,4095,4095
1.3712689480016707,4095,4095,4095
1.3739590369987127,2835,4095,4095
1.3766474170006404,1419,4095,4095
1.3793382559997553,453,4095,4095
1.3820415529989987,462,4095,4095
1.3847400589984318,2443,4095,4095
1.3874331480001274,3929,4095,4095
1.3901248200018017,3808,3341,3568
1.3928133250010433,3502,4095,4095
1.395504747000814,1938,4095,4095
1.3981946690000768,656,4095,4095
1.4008831749997626,445,4095,4095
1.4035736799996812,690,3094,3631
1.4062623520003399,3120,970,2544
1.4089580660001957,4095,4095,4095
1.411647280001489,4095,4095,4095
1.414336785001069,2530,4095,4095
1.4170252490002895,1169,4095,4095
1.419714338000631,444,4095,4095
1.4224024690010992,475,4095,4095
1.425092516001314,2800,4095,4095
1.4277846459990542,4095,4095,4095
1.4304735680016165,4095,4095,4095
1.4331622819991026,3354,4095,4095
1.4358529960009037,1207,1005,2554
1.4385725850006565,499,4095,4095
1.4412646320015483,448,4095,4095
1.4439605539992044,1035,3645,4095
1.4466526010000962,3349,1570,2926
1.4493412730007549,4095,4095,4095
1.4520291949993407,3959,4095,4095
1.4547164510004222,2394,4095,4095
1.457405747998564,1071,4095,4095
1.4600977119989693,449,4095,4095
1.4627880920015741,630,4095,4095
1.4654765140003292,3438,4095,4095
1.4682126449988573,4095,4095,4095
1.4709044420014834,4095,4095,4095
1.4736000720004085,3280,4095,4095
1.4762893689985503,1135,4095,4095
1.478978957999061,498,4095,4095
1.4816697140013275,448,4095,4095
1.4843584279988136,2098,4095,4095
1.487049683000805,3866,3792,3536
1.4897415630002797,4095,4095,4095
1.4924326940017636,3945,4095,4095
1.4951227409983403,2304,4095,4095
1.4978117880018544,969,4095,4095
1.5005005019993405,446,4095,4095
1.5031909239987726,941,4095,4095
1.5058796379998967,3888,4095,4095
1.5085700179988635,4095,4095,4095
1.5112610239993955,4095,4095,4095
1.5139506539999275,2907,4095,4095
1.5166382429997611,1431,4095,4095
1.5193268729999545,451,4095,4095
1.5220184210011212,454,4095,4095
1.524709550998523,2369,4095,4095
1.527400265000324,3798,4095,4095
1.5300887289995444,3795,2623,3203
1.5327779010003724,3477,4095,4095
1.5354675310009043,1918,4095,4095
1.5381532450010127,621,4095,4095
1.540841083999112,448,4095,4095
1.5435310479988402,1065,4095,4095
1.5462174700005562,3050,2071,2736
1.548905558000115,4095,4095,4095
1.551863148000848,4095,4095,4095
1.554553986999963,2375,4095,4095
1.5572412840010657,1014,4095,4095
1.5599293720006244,445,4095,4095
1.5626171280018752,498,4095,4095
1.5653051750014129,3039,4095,4095
1.5679940139998507,4095,4095,4095
1.5706853109986696,4095,4095,4095
1.5733732750013587,3216,4095,4095
1.5760626139999658,1091,1363,2949
1.578753202000371,466,4095,4095
1.5814404160009872,441,4095,4095
1.5841311719996156,1163,4095,4095
1.586823468998773,3431,2255,3152
1.5895575159993314,4095,4095,4095
1.5922514800004137,3666,4095,4095
1.5949426100014534,2118,4095,4095
1.5976337409992993,794,4095,4095
1.600322579000931,445,4095,4095
1.6030195019993698,646,4095,4095
1.6057104649989924,3539,4095,4095
1.6083980959992914,4095,4095,4095
1.6110872680001194,4095,4095,4095
1.6137784819984518,3782,4095,4095
1.6164674870015006,2151,4095,4095
1.6191587840003194,1535,4095,4095
1.6218485809986305,1266,4095,4095
1.6245346290015732,3783,4095,4095
1.6272238419987843,4095,4095,3760
1.6299139309994644,4095,4095,3792
1.6326016450002498,4095,4095,4095
1.6352903590013739,3975,4095,4095
1.6379800719987543,1790,4095,4095
1.6407001609986764,449,4095,4095
1.6433938750014931,813,4095,4095
1.6460840059990005,3155,4095,4080
1.648773886001436,4095,4095,4095
1.6514642660004029,3262,4095,4095
1.6541532299997925,1731,4095,4095
1.65684186100043,462,4095,4095
1.6595336999998835,432,4095,4095
1.6622214130002249,445,4095,4095
1.6649123349998263,1903,4095,4095
1.6676038410005276,3225,4095,4095
1.6702937209993252,2935,4095,4095
1.6729809770004067,2738,4095,4095
1.6756766489997972,1557,4095,4095
1.6783753630006686,471,4095,4095
1.6810683270014124,446,4095,4095
1.6837621650010988,767,2503,3015
1.6864551290018426,3242,467,2481
1.6891462179992232,4095,4095,4095
1.691836598001828,4034,4095,4095
1.6945261040018522,2417,4095,4095
1.697218150999106,1068,4095,4095
1.6999097400002938,447,4095,4095
1.7026016620002338,482,4095,4095
1.7052915009990102,3112,4095,4095
1.707982963998802,4095,4095,4095
1.7106751370010898,4095,4095,4095
1.7133663089989568,3318,4095,4095
1.7160589810009697,1154,1008,2800
1.7187490280011843,483,4095,4095
1.7214388669999607,447,4095,4095
1.72412945600081,1199,4095,4095
1.7268212529997982,3614,1950,3119
1.7295503419991292,4095,4095,4095
1.7322455549983715,3959,4095,4095
1.7349382690008497,2306,4095,4095
1.7376314829998591,959,4095,4095
1.7403211970013217,448,4095,4095
1.7430118689990195,719,4095,4095
1.7457033739992767,3651,4095,4095
1.7483938799996395,4095,4095,4095
1.7510833849992196,4095,4095,4095
1.7537729739997303,3183,4095,4095
1.7564623129983374,1040,4095,4095
1.7591511930004344,467,4095,4095
1.7618446990018128,449,4095,4095
1.7645344539996586,2238,4095,4095
1.767224751001777,4083,4095,3661
1.7699165070007439,4095,4095,4095
1.7726057209983992,3814,4095,4095
1.775296725998487,2192,4095,4095
1.7779888149998442,873,4095,4095
1.7806808200002706,447,4095,4095
1.7833728260011412,1046,4095,4095
1.786064872998395,4095,4095,4095
1.7887552120009786,4095,4095,4095
1.7914471750009398,4095,4095,4095
1.794138347999251,2903,4095,4095
1.7968281860012212,1438,4095,4095
1.7995178579985804,456,4095,4095
1.802208321998478,464,4095,4095
1.8048971190000884,2675,4095,4095
1.807587582999986,4095,4095,4095
1.8102806300012162,4095,3216,3472
1.8129721769983007,3600,4095,4095
1.8156617249987903,1967,4095,4095
1.8183603130019037,672,4095,4095
1.8210494439990725,448,4095,4095
1.8237389079986315,815,3841,3728
1.826430163000623,3411,906,2525
1.829119335001451,4095,4095,4095
1.8318102570010524,4095,4095,4095
1.8344997210006113,2509,4095,4095
1.8371881429993664,1109,4095,4095
1.8398794819986506,448,4095,4095
1.8426052380018518,482,4095,4095
1.8452986599986616,3088,4095,4095
1.847991747999913,4095,4095,4095
1.8506808370002545,4095,4095,4095
1.8533706339985656,3281,4095,4095
1.8560599310003454,1103,643,2634
1.8587486040014483,465,4095,4095
1.8614368169983209,442,4095,4095
1.8641277399983665,1145,4091,4095
1.8668188279989408,3604,1651,2960
1.8695068749984785,4095,4095,4095
1.8722436310017656,3830,4095,4095
1.8749379699984274,2189,4095,4095
1.8776289749985153,826,4095,4095
1.8803186059994914,446,4095,4095
1.8830109859991353,634,4095,4095
1.8857012000007671,3533,4095,4095
1.8883899550019123,4095,4095,4095
1.8910798780016194,4095,4095,4095
1.8937706329998036,2747,4095,4095
1.8964588880007796,772,4095,4095
1.899149019001925,452,4095,4095
1.9018386079987977,447,4095,4095
1.9045281129983778,2021,4095,4095
1.9072189520011307,3658,3827,3543
1.909909540998342,4095,4095,4095
1.912597963000735,3431,4095,4095
1.9152897599997232,1799,4095,4095
1.9179811819994939,493,4095,4095
1.9206723130009777,444,4095,4095
1.9233632760006003,785,4095,4095
1.926054989999102,3633,4095,4095
1.928743078999105,4095,4095,4095
1.931434542999341,3859,4095,4095
1.9341236729997036,2307,4095,4095
1.936815053999453,917,4095,4095
1.9395071010003448,432,4095,4095
1.9421986480010673,450,4095,4095
1.9448877370014088,2297,4095,4095
1.9475777420011582,3648,4095,4095
1.9502660809994268,3388,2821,3299
1.9529542109994509,2942,4095,4095
1.955644300000131,1493,4095,4095
1.9583348060004937,455,4095,4095
1.961022519000835,439,4095,4095
1.9637137329991674,944,4095,4095
1.9664067390003765,3088,1648,2643
1.9691011190006975,4095,4095,4095
1.9717951659986284,3680,4095,4095
1.9744877129996894,2129,4095,4095
1.9771767610000097,765,4095,4095
1.9798681829997804,445,4095,4095
1.9825590209984512,461,4095,4095
1.9852494439983275,2798,4095,4095
1.9879381569990073,4095,4095,4095
1.990629413001443,4095,4095,4095
1.9933160020009382,2864,4095,4095
1.996006090001174,885,1968,2605
1.9986951370010502,448,4095,4095
2.0013854349999747,441,4095,4095
2.004122065001866,962,2769,3312
2.0068399039992073,3430,929,2762
2.009567410001182,4095,4095,4095
2.0122600399990915,3536,4095,4095
2.014953129000787,1927,4095,4095
2.0176445090000925,576,4095,4095
2.0203341400010686,442,4095,4095
2.023025811999105,532,4095,4095
2.0257190260017524,3442,4095,4095
2.0284051560010994,4095,4095,4095
2.0310959950002143,4032,4095,4095
2.0337902089995623,2391,4095,4095
2.0364803390002635,448,4095,4095
2.0391708860006474,442,4095,4095
2.041859975000989,441,4095,4095
2.044552231000125,1866,4095,4095
2.047286778000853,3425,3938,3526
2.0499958250002237,4095,4095,4095
2.0526877049996983,2954,4095,4095
2.0553833359990676,1481,4095,4095
2.0580726330008474,501,4095,4095
2.0607616380002582,444,4095,4095
2.0634540190003463,781,4095,4095
2.0661481079987425,3669,4095,4095
2.0701496159999806,4095,4095,4095
2.0728595799992036,3632,4095,4095
2.075554334998742,1408,4095,4095
2.078246256998682,449,4095,4095
2.080934554000123,441,4095,4095
2.083625185001438,928,4095,4095
2.0863141490008275,2987,3152,3053
2.0890022790008516,4095,4095,4095
2.0916937430010876,3551,4095,4095
2.0943839979991026,1987,4095,4095
2.097075544999825,590,4095,4095
2.099766551000357,437,4095,4095
2.1024599310003396,452,4095,4095
2.1051490620011464,2543,4095,4095
2.107840609001869,4095,4095,4095
2.110529197998403,3273,4095,4095
2.113216203000775,2768,4095,4095
2.115906625000207,1465,4095,3937
2.11859713100057,477,4095,4095
2.121287093999854,451,4095,4095
2.1239782250013377,1335,2506,3139
2.1266680219996488,4095,422,2559
2.1293595690003713,4095,4095,4095
2.13205145000029,4095,4095,4095
2.1347411220012873,4095,4095,4095
2.1374298359987733,3247,4095,4095
2.140119133000553,1680,4095,4095
2.1428106380008103,1297,4095,4095
2.1455018099986773,4095,4095,4095
2.1482341490009276,4095,4095,4095
2.1509236130004865,4026,4095,4095
2.1536132430010184,1981,4095,4095
2.1563008740013174,0,1921,3129
2.15899000400168,432,4095,4095
2.1616813430009643,431,4095,4095
2.1643726820002485,663,4095,4095
2.1670618960015418,2525,2544,3199
2.1697536510000646,3438,4095,4095
2.1724426569999196,2282,4095,4095
2.1751325789991824,1116,4095,4095
2.1778217510000104,447,4095,4095
2.1805086730018957,438,4095,4095
2.183199595001497,546,4095,4095
2.185886642000696,3530,4095,4095
2.1885754389986687,4095,4095,4095
2.1912657780012523,4095,4095,4095
2.1939582000013615,2434,4095,4095
2.1966495390006457,853,4095,4095
2.1993397110018122,448,4095,4095
2.2020295080001233,446,4095,4095
2.2047186800009513,2354,4095,4095
2.2074066860004677,4095,4095,3800
2.2100961079995614,4095,4095,4016
2.212784447001468,3450,4095,4095
2.215475786000752,1775,4095,4095
2.218165998998302,493,4095,4095
2.2208546709989605,445,4095,4095
2.2235448850005923,1069,4095,4095
2.2262356409992208,4095,4095,4095
2.2289233960000274,4095,4095,4095
2.2316119850001996,4095,4095,4095
2.234300906999124,2514,4095,4095
2.2369904129991482,1095,4095,4095
2.2396801260001666,448,4095,4095
2.242369506999239,464,4095,4095
2.245095554000727,3030,4095,4095
2.2477873930001806,4095,4095,4095
2.2504774820008606,4090,3707,3802
2.2531658619991504,3452,4095,4095
2.2558564089995343,1767,4095,4095
2.2585454149993893,511,4095,4095
2.261235919999308,447,4095,4095
2.263925592000305,1056,2731,3103
2.266617514000245,4095,470,2484
2.2693055199997616,4095,4095,4095
2.2719960249996802,4095,4095,4095
2.274686071999895,2496,4095,4095
2.2773742440003844,1105,4095,4095
2.2800634580016776,449,4095,4095
2.2827529220012366,565,4095,4095
2.285442176998913,3795,4095,4095
2.2881332249999105,4095,4095,4095
2.2908270219995757,4095,4095,4095
2.2935456939994765,3452,4095,4095
2.296235866000643,1255,747,2690
2.2989255380016402,549,4095,4095
2.301615585001855,445,4095,4095
2.304305256999214,1623,4095,4095
2.3069952209989424,4095,1823,3023
2.309684309999284,4095,4095,4095
2.3123731070008944,4095,4095,4095
2.3150644039997132,2526,4095,4095
2.3177547849991242,1138,4095,4095
2.320443623000756,450,4095,4095
2.32313496200004,865,4095,4095
2.3258330509997904,4095,4095,4095
2.3285231820009358,4095,4095,4095
2.331212561999564,4095,4095,4095
2.3339019420018303,3409,4095,4095
2.336589531001664,1131,4095,4095
2.339278370000102,498,4095,4095
2.3419677919991955,452,4095,4095
2.344655505999981,2642,4095,4095
2.347345636000682,4095,3897,3568
2.350032350001129,4095,4095,4095
2.3527202309996937,4046,4095,4095
2.3554071110011137,2265,4095,4095
2.358114700000442,917,4095,4095
2.3608127890001924,448,4095,4095
2.3635035020015494,1221,4095,4095
2.3661947159998817,4095,4095,4095
2.368883013001323,4095,4095,4095
2.371574436001538,4095,4095,4095
2.3742640240016044,3158,4095,4095
2.376952488000825,1511,4095,4095
2.3796436189986707,467,4095,4095
2.382334041001741,473,4095,4095
2.3850255879988254,3402,4095,4095
2.3877175519992306,4095,4095,4095
2.3904062649999105,4095,2877,3361
2.393093979000696,3826,4095,4095
2.39578235999943,2098,4095,4095
2.3984725320005964,783,4095,4095
2.4011599959994783,450,4095,4095
2.40384962600001,1465,4095,4013
2.40654658999847,4095,1571,2607
2.409233929000038,4095,4095,4095
2.4119245170004433,4095,4095,4095
2.4146148139989236,2710,4095,4095
2.417302486999688,1261,4095,4095
2.419992408998951,447,4095,4095
2.4226822890013864,546,4095,4095
2.4253715029990417,3762,4095,4095
2.428061966998939,4095,4095,4095
2.430752013999154,4095,4095,4095
2.4334403940010816,3497,4095,4095
2.4361296909992234,1285,1709,2559
2.4388173219995224,559,4095,4095
2.441505494000012,446,4095,4095
2.4442832079985237,1429,2735,3287
2.44698004699967,4095,1535,2905
2.4496746360018733,4095,4095,4095
2.4523666409986618,4095,4095,4095
2.455057355000463,2394,4095,4095
2.4577489440016507,1003,4095,4095
2.4604394490015693,449,4095,4095
2.4631299959983153,785,4095,4095
2.465822501999355,4095,4095,4095
2.468511631999718,4095,4095,4095
2.4712027630012017,4095,4095,4095
2.473893810001755,3407,4095,4095
2.4765831069998967,1154,4095,4095
2.4792739459990116,511,4095,4095
2.4819659929999034,453,4095,4095
2.4846579149998433,2679,4095,4095
2.4873477539986197,4095,3747,3533
2.4900380090002727,4095,4095,4095
2.492729805999261,4095,4095,4095
2.495419937000406,2402,4095,4095
2.4981093589995,1056,4095,4095
2.500799031000497,454,4095,4095
2.503491285999189,1290,4095,4095
2.5061818750000384,4095,4095,4095
2.508870380999724,4095,4095,4095
2.5115614690002985,4095,4095,4095
2.51425114200174,3411,4095,4095
2.5169398139987607,1695,4095,4095
2.519631777999166,557,4095,4095
2.522323408000375,480,4095,4095
2.525013080001372,3458,4095,4095
2.5277052109995566,4095,4095,4095
2.5303939660007018,4095,2607,3184
2.5330827629986743,4045,4095,4095
2.535772477000137,2230,4095,4095
2.5384636070011766,880,4095,4095
2.5411525710005662,452,4095,4095
2.5438429929999984,1586,4095,4095
2.5465353740000864,4095,1946,2664
2.549227879000682,4095,4095,4095
2.5519206349999877,4095,4095,4095
2.5546105979992717,2802,4095,4095
2.5572994370013475,1327,4095,4095
2.5599914839986013,451,4095,4095
2.5626811559995986,529,4095,4095
2.5653718290013785,3847,4095,4095
2.5680644169988227,4095,4095,4095
2.57075488099872,4095,4095,4095
2.573445720001473,3607,4095,4095
2.5761387669990654,1395,2431,2670
2.5788351890005288,656,4095,4095
2.5815580700000282,446,4095,4095
2.5842509499998414,1518,2586,3210
2.586943081001664,4095,994,2749
2.589634586001921,4095,4095,4095
2.5923236749986245,4095,4095,4095
2.5950145140013774,2589,4095,4095
2.5977094779991603,1168,4095,4095
2.600399524999375,454,4095,4095
2.6030931970017264,764,4095,4095
2.6060284939994744,4095,4095,4095
2.6087196250009583,4095,4095,4095
2.6114140470017446,4095,4095,4095
2.614104969001346,3312,4095,4095
2.6167937659993186,1435,4095,4095
2.6194841469987296,497,4095,4095
2.6221739020002133,466,4095,4095
2.6248630740010412,3309,4095,4095
2.627561370998592,4095,4095,3871
2.630251752001641,4095,4095,3920
2.632942298998387,4095,4095,4095
2.635634596001182,4095,4095,4095
2.6383259770009317,2796,4095,4095
2.6410176899989892,2105,4095,4095
2.64371048799876,3565,4095,4095
2.64640274300109,4095,4095,3958
2.6490918730014528,4095,4095,4095
2.651781545999256,4095,4095,4095
2.6544721339996613,4095,4095,4095
2.657161848001124,1973,4095,4095
2.6598530619994563,464,4095,4095
2.662541734000115,457,4095,4095
2.665248198001791,2975,4095,4095
2.667939995000779,4095,4095,4095
2.6706320839984983,3453,4095,4095
2.6733230060017377,2609,4095,4095
2.6760158450015297,1117,4095,4095
2.6787062250004965,447,4095,4095
2.6813968970018323,438,4095,4095
2.6840876109999954,972,2559,3059
2.686778366998624,4051,397,2517
2.6894679549986904,4095,4095,4095
2.6921967529997346,4095,4095,4095
2.6948878830007743,2602,4095,4095
2.6976088890005485,1275,4095,4095
2.7003005190017575,464,4095,4095
2.704925361998903,774,4095,4095
2.7076282009984425,4095,4095,3927
2.7103218310003285,4095,3671,3626
2.7130112949998875,4095,4095,4095
2.7157029670015618,2559,4095,4095
2.7183934310014592,1231,4095,4095
2.7210818530002143,464,4095,4095
2.7237716919989907,1690,4095,4095
2.726464613999269,4095,3494,3633
2.7291538280005625,4095,4095,4095
2.7318450409984507,4095,4095,4095
2.734535504998348,3504,4095,4095
2.7372461769991787,1853,4095,4095
2.739948391001235,722,4095,4095
2.742643230001704,650,4095,4095
2.7453290689991263,4095,4095,4095
2.7480198240009486,4095,4095,4095
2.7507125379997888,4095,4095,4095
2.7534038349986076,4095,4095,4095
2.756093381998653,2448,4095,3623
2.7587823040012154,1219,4095,4095
2.7614693100003933,464,4095,4095
2.764191815000231,1693,2354,3155
2.7668838210011018,4095,466,2601
2.7696009100000083,4095,4095,4095
2.772291123001196,4095,4095,4095
2.7749819199998456,3472,4095,4095
2.7776721340014774,1840,4095,4095
2.7803595149998728,796,4095,4095
2.783049811998353,999,4095,4095
2.7857388590018672,4095,4095,4095
2.7884301980011514,4095,4095,4095
2.7911204119991453,4095,4095,4095
2.7938087090005865,4095,4095,4095
2.7964981719997013,1963,2321,3248
2.799190803001693,1271,4095,4095
2.801882725001633,574,4095,4095
2.8045717300010438,2736,4095,4095
2.807261860998551,4095,2819,3235
2.8099512410008174,4095,4095,4095
2.812640372001624,4095,4095,4095
2.815330585999618,3418,4095,4095
2.8180204240015883,1781,4095,4095
2.820708930001274,784,4095,4095
2.8233995599985064,1360,4095,4095
2.8260915239989117,4095,4095,4095
2.8287820709992957,4095,4095,4095
2.831475577000674,4095,4095,4095
2.8341704990016297,4095,4095,4095
2.836857629001315,2153,4095,4095
2.8395702599991637,1122,4095,4095
2.842275682000036,610,4095,4095
2.844965312000568,3648,4095,4095
2.847660651001206,4095,4095,4095
2.8503517399985867,4095,3807,3622
2.8530411620013183,4095,4095,4095
2.855730917999608,3001,4095,4095
2.8584194229988498,1515,4095,4095
2.861123137001414,576,4095,4095
2.8638304339983733,1818,4095,4095
2.8665514810018067,4095,3136,2951
2.8692761120000796,4095,4095,4095
2.8719793669988576,4095,4095,4095
2.8746688309984165,3687,4095,4095
2.877356711000175,2003,4095,4095
2.8800551749991428,880,4095,4095
2.882744056001684,771,4095,4095
2.88543276999917,4095,4095,4095
2.888125191999279,4095,4095,4095
2.8908217800017155,4095,4095,4095
2.8935600360018725,4095,4095,4095
2.896255540999846,2064,2612,2752
2.89894504699987,1277,4095,4095
2.901634802001354,481,4095,4095
2.9043278499993903,1872,2849,3263
2.907021271999838,4095,1073,2741
2.9097128190005606,4095,4095,4095
2.91240282400031,4095,4095,4095
2.9150949959985155,3383,4095,4095
2.917784252000274,1678,4095,4095
2.9204714660008904,615,4095,4095
2.9231618880003225,922,4095,4095
2.925851267998951,4095,4095,4095
2.928538149000815,4095,4095,4095
2.931228571000247,4095,4095,4095
2.933918701000948,3951,4095,4095
2.936610623000888,1625,3419,3583
2.9393047539997497,901,4095,4095
2.9419948430004297,461,4095,4095
2.944684515001427,2789,4095,4095
2.947374144998321,4095,3254,3341
2.9500644840009045,4095,4095,4095
2.952754948000802,4095,4095,4095
2.9554449530005513,2754,4095,4095
2.9581338339994545,1332,4095,4095
2.960822921999352,462,4095,4095
2.963511636000476,1166,4095,4095
2.9662008919985965,4095,4095,4095
2.9688913550016878,4095,4095,4095
2.971584528000676,4095,4095,4095
2.9742823660017166,3559,4095,4095
2.9769713300011063,1831,4095,4095
2.979660168999544,718,4095,4095
2.9823487989997375,490,4095,4095
2.985037888000079,3453,4095,4095
2.9877288099996804,4095,4095,4095
2.990418982000847,4095,3026,3523
2.993112280000787,4095,4095,4095
2.995804702000896,2593,4095,4095
2.998497207001492,1226,4095,4095
3.0011887959990418,462,4095,4095
3.0038817179993202,1694,4095,4095
3.0066162240000267,4095,2819,2888
3.009331604000181,4095,4095,4095
3.012022442999296,4095,4095,4095
3.0147120319998066,3474,4095,4095
3.017399454001861,1819,4095,4095
3.0200887089995376,704,4095,4095
3.0227787980002176,667,4095,4095
3.0254660950013204,4095,4095,4095
3.0281898510002065,4095,4095,4095
3.0308802729996387,4095,4095,4095
3.0335945279985026,4095,4095,4095
3.0362861169996904,1841,2189,2611
3.0389750389986148,1072,4095,4095
3.0416658360009023,457,4095,4095
3.044353091998346,1713,2833,3302
3.047043180999026,4095,1044,2746
3.0497605609998573,4095,4095,4095
3.0524513169984857,4095,4095,4095
3.0551941560006526,2883,4095,4095
3.0579289109991805,1371,4095,4095
3.0606240829984017,459,4095,4095
3.063327046998893,874,4095,4095
3.066030010999384,4095,4095,4095
3.0687204329988162,4095,4095,4095
3.071408979998523,4095,4095,4095
3.0740977360001125,3504,4095,4095
3.0767854080004327,1283,4095,4095
3.0794740800010914,614,4095,4095
3.0821629599995504,457,4095,4095
3.084850382001605,2808,4095,4095
3.087540137999895,4095,4090,3557
3.090230142999644,4095,4095,4095
3.0929170650015294,4095,4095,4095
3.0956042370016803,2437,4095,4095
3.098297825999907,1077,4095,4095
3.10098774799917,454,4095,4095
3.1036787960001675,1330,4095,4095
3.1063698010002554,4095,4095,4095
3.10905688999992,4095,4095,4095
3.111746228998527,4095,4095,4095
3.114434525999968,3300,4095,4095
3.117122488998575,1555,4095,4095
3.1198162869986845,467,4095,4095
3.1225103340002534,464,4095,4095
3.1251985890012293,3408,4095,4095
3.127888470000471,4095,4095,4095
3.130581475001236,4095,2620,3184
3.133270646998426,4095,4095,4095
3.1359585690006497,2503,4095,4095
3.138647158000822,1405,4095,4095
3.1413336639998306,806,4095,4095
3.144023377000849,2347,4095,4095
3.146711798999604,4095,1771,2615
3.1493991800016374,4095,4095,4095
3.152088602000731,4095,4095,4095
3.154776691000734,4095,4095,4095
3.157465696000145,4095,4095,4095
3.160206576998462,2966,4095,4095
3.1629052909993334,2039,4095,4095
3.165601171000162,4095,4095,4095
3.1682905099987693,4095,4095,4095
3.1709793070003798,4095,4095,4095
3.1736683130002348,2745,4095,4095
3.176355693001824,556,1360,2545
3.1790461570017214,445,4095,4095
3.1817377459992713,443,4095,4095
3.1844255430005433,909,2896,3387
3.187115297998389,3325,1232,2833
3.189803886998561,4095,4095,4095
3.192495767001674,3436,4095,4095
3.1951870230004715,1920,4095,4095
3.1978771530011727,731,4095,4095
3.2005637000002025,453,4095,4095
3.203252789000544,703,4095,4095
3.2059401699989394,4095,4095,4095
3.2086270920008246,4095,4095,4095
3.211316346998501,4095,4095,4095
3.2140041860002384,3504,4095,4095
3.2166900250012986,1359,3339,3575
3.219377904999419,723,4095,4095
3.2220645359993796,459,4095,4095
3.224753957998473,2537,4095,4095
3.22744525500093,4095,3057,3313
3.230134093999368,4095,4095,4095
3.2328218490001746,4095,4095,4095
3.2355104380003468,2657,4095,4095
3.238198735001788,1307,4095,4095
3.2408849489984277,467,4095,4095
3.2435736629995517,1110,4095,4095
3.24626041800002,4095,4095,4095
3.248947132000467,4095,4095,4095
3.2516710119998606,4095,4095,4095
3.2543616850016406,3530,4095,4095
3.2570550230011577,1820,4095,4095
3.2597464870013937,761,4095,4095
3.2624339089998102,496,4095,4095
3.2651205399997707,3403,4095,4095
3.2678098370015505,4095,4095,4095
3.270497550998698,4095,3440,3583
3.273182598000858,4095,4095,4095
3.2758732280017284,2559,4095,4095
3.278564484000526,1267,4095,4095
3.281251946998964,474,4095,4095
3.283940494999115,1681,4095,4095
3.2866288330005773,4095,3248,3024
3.289319046998571,4095,4095,4095
3.2920087189995684,4095,4095,4095
3.2946981829991273,3467,4095,4095
3.2973858549994475,1857,4095,4095
3.3000733609987947,770,4095,4095
3.3027620739994745,628,4095,4095
3.305449955001677,3886,4095,4095
3.308140043998719,4095,4095,4095
3.310831341001176,4095,4095,3907
3.313549888000125,4095,4095,4095
3.316240893000213,2500,4095,4095
3.318929940000089,1223,4095,4095
3.3216218630004732,477,4095,4095
3.3243118680002226,1597,2446,3153
3.3270022069991683,4095,397,2559
3.329692128998431,4095,4095,4095
3.3323800930011203,4095,4095,4095
3.335070140001335,3358,4095,4095
3.337760269998398,1711,4095,4095
3.340448817001743,673,4095,4095
3.343138864998764,797,4095,4095
3.345830037000269,4095,4095,4095
3.348516625999764,4095,4095,4095
3.351204130998667,4095,4095,4095
3.353894845000468,3891,4095,4095
3.356583808999858,1648,1453,3007
3.3592708139985916,976,4095,4095
3.3619881109989365,464,4095,4095
3.364676575001795,1943,4095,4095
3.367364080000698,4095,2448,3162
3.370053293998353,4095,4095,4095
3.372739549999096,4095,4095,4095
3.3754289300013625,2803,4095,4095
3.378116351999779,1419,4095,4095
3.3808025239995914,495,4095,4095
3.3834903210008633,977,4095,4095
3.386184160000994,4095,4095,4095
3.388874582000426,4095,4095,4095
3.3915647540015925,4095,4095,4095
3.3942533430017647,3575,4095,4095
3.396942098999716,1434,4095,4095
3.3996325209991483,810,4095,4095
3.402321067998855,462,4095,4095
3.4050098650004657,2923,4095,4095
3.4076985370011244,4095,4095,3696
3.410387918000197,4095,4095,4095
3.413075715001469,4095,4095,4095
3.4157663869991666,2523,4095,4095
3.4184591010016447,1207,4095,4095
3.421146813998348,463,4095,4095
3.4238381530012703,1407,4095,4095
3.426528824998968,4095,4095,4095
3.4292163309983152,4095,4095,4095
3.4319066280004336,4095,4095,4095
3.434595842001727,3280,4095,4095
3.4372829310013913,1619,4095,4095
3.4399712689992157,527,4095,4095
3.4426598999998532,477,4095,4095
3.445352989001549,3376,4095,4095
3.4480479519988876,4095,4095,4095
3.4507412079983624,4095,2831,3279
3.4534671299988986,3790,4095,4095
3.456201676999626,2111,4095,4095
3.458896307998657,813,4095,4095
3.4616138550009055,443,4095,4095
3.464305902001797,1209,2822,3042
3.466999448999559,4095,350,2506
3.4696896210007253,4095,4095,4095
3.4723792520017014,4095,4095,4095
3.475068965999526,2641,4095,4095
3.477760762998514,1263,4095,4095
3.4804504349995113,461,4095,4095
3.483142314998986,576,4095,4095
3.4858331120012735,3841,4095,4095
3.4885239510003885,4095,4095,4095
3.491215206999186,4095,4095,4095
3.493905462000839,3486,4095,4095
3.4965943839997635,1347,1168,2882
3.499285015001078,695,4095,4095
3.5019744370001717,451,4095,4095
3.5046655670012115,1689,4095,4095
3.50735573899874,4095,2192,3110
3.510045202998299,4095,4095,4095
3.512736249998852,4095,4095,4095
3.515428296999744,2554,4095,4095
3.518118386000424,1225,4095,4095
3.5208083920006175,460,4095,4095
3.5234990639983153,863,4095,4095
3.5261902359998203,4095,4095,4095
3.5288793250001618,4095,4095,4095
3.531568997001159,4095,4095,4095
3.5342600859985396,3504,4095,4095
3.536948549000954,1287,4095,4095
3.53964001300119,662,4095,4095
3.5423309770012565,453,4095,4095
3.545021731999441,2698,4095,4095
3.547714405001898,4095,4095,3658
3.5504054099983477,4095,4095,4095
3.5530937490002543,4095,4095,4095
3.5557833790007862,2361,4095,4095
3.558473134999076,1036,4095,4095
3.5611620570016385,383,4095,4095
3.5638541039988922,1245,4095,4095
3.566542609001772,4095,4095,4095
3.5692307819990674,4095,4095,4095
3.5719198289989436,4095,4095,4095
3.5746108339990315,2867,4095,4095
3.5773010480006633,1408,4095,4095
3.5799942199992074,460,4095,4095
3.582685975001368,448,4095,4095
3.5853760639984102,3005,4095,4095
3.588066110998625,4095,4095,4095
3.5907555340018007,4095,2685,3219
3.593444497000746,3580,4095,4095
3.596135461000813,1956,4095,4095
3.5988275919989974,702,4095,4095
3.6015457220019016,450,4095,4095
3.60423910299869,1309,4095,4055
3.607127107999986,3932,942,2528
3.609820238998509,4095,4095,4095
3.612509744001727,4095,4095,4095
3.615202125001815,2471,4095,4095
3.6178929220004648,1115,4095,4095
3.6205812609987333,437,4095,4095
3.6232719740000903,572,4095,4095
3.6259626880018914,3769,4095,4095
3.628652569001133,4095,4095,4095
3.631342823999148,4095,4095,4095
3.6340331630017317,3245,4095,4095
3.6367210850003175,1075,2000,3171
3.639411674001167,486,4095,4095
3.64210238799933,457,4095,4095
3.644792060000327,1664,4095,4095
3.647481815001811,4095,2559,3209
3.650172237001243,4095,4095,4095
3.65285895100169,4095,4095,4095
3.6555809570018027,3644,4095,4095
3.6582852540013846,2389,4095,4095
3.66097663400069,1752,4095,4095
3.663668264998705,2418,4095,4095
3.666356811998412,4095,4095,4095
3.6690451510003186,4095,4095,4095
3.6717341980001947,4095,4095,4095
3.674428162001277,4095,4095,4095
3.677124541998637,2275,4095,4095
3.6798210890010523,719,4095,4095
3.682515552998666,436,4095,4095
3.68520793299831,2227,4095,4095
3.687899106000259,3520,4095,3958
3.690590443999099,4051,4095,3735
3.6932797000008577,2546,4095,4095
3.6959689969989995,1151,4095,4095
3.698658711000462,446,4095,4095
3.701348465998308,442,4095,4095
3.704038305000722,894,4095,4095
3.706731269001466,2957,4066,3779
3.7094226490007713,4095,4095,4095
3.71211373800179,3968,4095,4095
3.7148027430012007,2501,4095,4095
3.717491624000104,1266,4095,4095
3.720224879001762,460,4095,4095
3.722918135001237,471,4095,4095
3.7256101400016632,3439,4095,4095
3.728298229001666,4095,4095,4095
3.73099027599892,4095,4095,4095
3.7336822819997906,3675,4095,4095
3.736372745999688,2064,4095,3929
3.739063918001193,832,4095,4095
3.7417574229984893,459,4095,4095
3.7444460119986616,1295,2289,3151
3.747136934001901,4095,364,2583
3.7498269399984565,4095,4095,4095
3.752515277999919,4095,4095,4095
3.7552051589991606,2789,4095,4095
3.757896997998614,1408,4095,4095
3.760585878000711,475,4095,4095
3.7632743829999526,658,4095,4095
3.765962805999152,3927,4095,4095
3.768651728001714,4095,4095,4095
3.7713436919984815,4095,4095,4095
3.7740335300004517,3628,4095,4095
3.7767211190002854,1492,1429,2986
3.7794113330019172,836,4095,4095
3.782101213000715,462,4095,4095
3.784789509998518,1753,4095,4095
3.7874817660012923,4095,2361,3155
3.7901726880008937,4095,4095,4095
3.7928694440015533,4095,4095,4095
3.7955589490011334,2736,4095,4095
3.7982499540012213,1391,4095,4095
3.8009400849987287,490,4095,4095
3.8036325489993033,947,4095,4095
3.806322429001739,4095,4095,4095
3.809010100998421,4095,4095,4095
3.811701857001026,4095,4095,4095
3.8143922369999927,3583,4095,4095
3.8170809510011168,1472,4095,4095
3.81977166499928,856,4095,4095
3.822462086998712,478,4095,4095
3.8251519670011476,2818,4095,4095
3.8278432639999664,4095,4095,3732
3.8305328950009425,4095,4095,4095
3.8332236089991056,4095,4095,4095
3.835916364001605,2669,4095,4095
3.838608578000276,1346,4095,4095
3.8412958330009133,482,4095,4095
3.843986631000007,1446,4095,4095
3.846676093999122,4095,4095,4095
3.8493641409986594,4095,4095,4095
3.852054771999974,4095,4095,4095
3.854744861000654,3457,4095,4095
3.8574722000012116,1853,4095,4095
3.860205788001622,744,4095,4095
3.8628973769991717,555,4095,4095
3.865613049001695,3472,4095,4095
3.8683052220003447,4095,4095,4095
3.870995559998846,4095,4095,3895
3.8736838570002874,4056,4095,4095
3.8763730710015807,2352,4095,4095
3.879063659998792,1101,4095,4095
3.8817556649992184,462,4095,4095
3.8844442539993906,1329,2386,3069
3.8871369260014035,4095,346,2501
3.88982755699908,4095,4095,4095
3.892515686999104,4095,4095,4095
3.89520694300154,3158,4095,4095
3.897899031999259,1601,4095,4095
3.900589619999664,580,4095,4095
3.903280167000048,699,4095,4095
3.905972505999671,3934,4095,4095
3.908662886999082,4095,4095,4095
3.9113558509998256,4095,4095,4095
3.914046272999258,3786,4095,4095
3.916734695001651,1625,976,2830
3.9194247000014,944,4095,4095
3.922116456000367,462,4095,4095
3.9248056690012163,1697,4095,4095
3.9274964249998447,4095,2147,3150
3.930185804998473,4095,4095,4095
3.932875102000253,4095,4095,4095
3.935565482999664,2688,4095,4095
3.9382547800014436,1327,4095,4095
3.941937537998456,464,4095,4095
3.944639751000068,832,4095,4095
3.9473322150006425,4095,1021,2800
3.9500220119989535,4095,4095,4095
3.9527111839997815,4095,4095,4095
3.9554021900003136,2640,4095,4095
3.9580925289992592,1268,4095,4095
3.96078690899958,462,4095,4095
3.963478205998399,667,4095,4095
3.966169169998466,3830,4095,4095
3.9688597169988498,4095,4095,4095
3.9715490140006295,4095,4095,4095
3.9742387699989195,3415,4095,4095
3.976927399999113,1233,3067,3475
3.9796181970014004,579,4095,4095
3.9823101610018057,451,4095,4095
3.9849986670014914,2188,4095,4095
3.9876889639999717,4095,3182,3389
3.9903808859999117,4095,4095,4095
3.9930712659988785,4007,4095,4095
3.99576573000013,2320,4095,4095
3.998456110999541,1011,4095,4095
4.001146241000242,453,4095,4095
4.003836413001409,899,4095,4095
4.006526919001772,4095,4095,4095
4.009273716001189,4095,4095,4095
4.011993888001598,4095,4095,4095
4.014686559999973,3149,4095,4095
4.017380607001542,1584,4095,4095
4.020074738000403,502,4095,4095
4.022765910001908,467,4095,4095
4.025457790001383,2832,4095,4095
4.028179254000861,4095,4095,4095
4.030873468000209,4095,2559,3171
4.033590014998481,3840,4095,4095
4.0362824789990555,2225,4095,4095
4.038974776001851,967,4095,4095
4.041666447999887,464,4095,4095
4.044351787000778,1430,4095,3989
4.047041166999406,3889,1261,2559
4.049731798000721,4095,4095,4095
4.052420428000914,4095,4095,4095
4.055110017001425,2927,4095,4095
4.05782881399864,1490,4095,4095
4.060522403000505,467,4095,4095
4.0632643249991816,549,4095,4095
4.0659729139988485,3529,4095,4095
4.068663586000184,4095,4095,4095
4.0713521750003565,4095,4095,4095
4.074040971998329,3472,4095,4095
4.076729560998501,1325,670,2670
4.07942177500081,624,4095,4095
4.082111988998804,450,4095,4095
4.0848004940016835,1355,3954,4095
4.087490833000629,3885,1865,3042
4.090181797000696,4095,4095,4095
4.092870469001355,4016,4095,4095
4.095560806999856,2336,4095,4095
4.098250104998442,1011,4095,4095
4.100938193001639,448,4095,4095
4.103627948999929,656,4095,4095
4.1063201629986,3713,4095,4095
4.109008460000041,4095,4095,4095
4.111700049001229,4095,4095,4095
4.114388345999032,3152,4095,4095
4.117077226001129,1040,4095,4095
4.119766232000984,481,4095,4095
4.122458819998428,454,4095,4095
4.125148243001604,2230,4095,4095
4.127838914999302,4080,3781,3519
4.13052750299903,4095,4095,4095
4.13321655099935,3775,4095,4095
4.1359070139988034,2159,4095,4095
4.138599060999695,845,4095,4095
4.141286942001898,449,4095,4095
4.143977613999596,978,4095,4095
4.146667160999641,4010,4095,4095
4.149354124998354,4095,4095,4095
4.152042630001233,4095,4095,4095
4.154732802999206,2827,4095,4095
4.157421183001134,1495,4095,4095
4.160109979999106,545,4095,4095
4.162799319001351,511,4095,4095
4.165489783001249,3219,4095,4095
4.168265622000035,4095,4095,4095
4.170958001999679,4095,2749,3275
4.173648091000359,4095,4095,4095
4.176335929998459,4095,4095,4095
4.179027934998885,3458,4095,4095
4.181717898998613,2377,4095,4095
4.184407404001831,3129,4095,4080
4.18709895199936,4095,1201,2550
4.189787956998771,4095,4095,4095
4.19247775400072,4095,4095,4095
4.195168592999835,2215,4095,4095
4.197857182000007,581,4095,4095
4.200544728999375,435,4095,4095
4.203234317999886,383,4095,4095
4.205923948000418,2178,4095,4095
4.208612078000442,3472,4095,4095
4.211302291998436,3125,4095,4095
4.213992380999116,2269,4095,4095
4.216683344999183,578,1575,2559
4.219374349999271,453,4095,4095
4.222063231001812,446,4095,4095
4.224768820000463,1013,2785,3266
4.227475907999178,3376,1171,2818
4.230171331000747,4095,4095,4095
4.232860585998424,3911,4095,4095
4.235551049998321,2402,4095,4095
4.238241514001857,1134,4095,4095
4.2409297689991945,457,4095,4095
4.243619898999896,667,4095,4095
4.246308862999285,3711,4095,4095
4.249000784999225,4095,4095,4095
4.251692791000096,4095,4095,4095
4.254382421000628,3407,4095,4095
4.257071135001752,1243,4059,3707
4.2597933069992,626,4095,4095
4.262484479000705,455,4095,4095
4.265172817998973,2301,4095,4095
4.267863490000309,4095,3458,3489
4.270551995999995,4095,4095,4095
4.2732422100016265,4095,4095,4095
4.275931422998838,2416,4095,4095
4.278649261999817,1134,4095,4095
4.281340058998467,458,4095,4095
4.284031147999485,1139,4095,4095
4.286721862001286,4095,4095,4095
4.289410284000041,4095,4095,4095
4.292102456001885,4095,4095,4095
4.294791753000027,3325,4095,4095
4.297478092001256,1699,4095,4095
4.300213263999467,605,4095,4095
4.302904144999047,487,4095,4095
4.305595400001039,2882,4095,4095
4.308283655998821,4095,4095,4095
4.3109744530011085,4095,2525,3182
4.313666250000097,3979,4095,4095
4.3163561719993595,2336,4095,4095
4.319045427000674,1091,4095,4095
4.321732933000021,462,4095,4095
4.324419813001441,1435,4095,4095
4.327108861001761,3779,1687,2661
4.329800573999819,4095,4095,4095
4.332488288000604,4095,4095,4095
4.335176626998873,3263,4095,4095
4.3378660490016046,1669,4095,4095
4.340554971000529,617,4095,4095
4.343245977001061,595,4095,4095
4.345935273999203,3472,4095,4095
4.348625736998656,4095,4095,4095
4.351317200998892,4095,4095,4095
4.354006664998451,3889,4095,4095
4.356695046000823,1725,2346,2660
4.359398093001801,1040,4095,4095
4.362093597999774,459,4095,4095
4.36478393699872,1410,2768,3241
4.3674734419983,4095,966,2786
4.370167490000313,4095,4095,4095
4.372857286998624,4095,4095,4095
4.375547542000277,2896,4095,4095
4.378235880998545,1494,4095,4095
4.380923761000304,510,4095,4095
4.3836147250003705,738,4095,4095
4.386304856001516,3815,4095,4095
4.388992193999002,4095,4095,4095
4.391682282999682,4095,4095,4095
4.394371829999727,3583,4095,4095
4.397058669001126,1497,2879,3411
4.399747882998781,849,4095,4095
4.402437054999609,463,4095,4095
4.4051270189993375,2131,4095,4095
4.407815648999531,4095,2926,3307
4.4105098209984135,4095,4095,4095
4.41320057700068,4095,4095,4095
4.415891124001064,2649,4095,4095
4.4185816290009825,1331,4095,4095
4.4212706350008375,476,4095,4095
4.423960182000883,960,4095,4095
4.4266506870008016,4095,4095,4095
4.429339110000001,4095,4095,4095
4.432029365001654,4095,4095,4095
4.4347204949990555,3441,4095,4095
4.437407876001089,1721,4095,4095
4.440100422998512,691,4095,4095
4.442790678000165,469,4095,4095
4.445486101001734,2589,4095,4095
4.448228481000115,4095,4095,3965
4.4509219030005625,4095,2827,2959
4.453612658999191,3926,4095,4095
4.456301747999532,2277,4095,4095
4.458993127998838,995,4095,4095
4.461682925000787,455,4095,4095
4.464373347000219,1335,4095,4095
4.467062894000264,3354,2943,2969
4.469750983000267,4095,4095,4095
4.472441614001582,4095,4095,4095
4.475130951999745,2819,4095,4095
4.4778205000002345,1418,4095,4095
4.480508462998841,464,4095,4095
4.48319842699857,466,4095,4095
4.485887515998911,2927,4095,4095
4.488575645998935,4095,4095,4095
4.491264234999107,3951,4095,4095
4.4939529490002315,3503,4095,4095
4.4966404539991345,1914,4095,3831
4.499329835001845,714,4095,4095
4.502020381998591,448,4095,4095
4.504710553999757,1035,2347,3140
4.507401517999824,3458,395,2550
4.510092148000695,4095,4095,4095
4.512781112000084,4095,4095,4095
4.515470368001843,2519,4095,4095
4.518159539999033,1201,4095,4095
4.520847378000326,437,4095,4095
4.523536551001598,544,4095,4095
4.5262282229996345,3417,4095,4095
4.528916145001858,4095,4095,4095
4.531605399999535,4095,4095,4095
4.53429440599939,3439,4095,4095
4.536985203001677,1296,1340,2923
4.539676083000813,639,4095,4095
4.542365672001324,454,4095,4095
4.5450547190012,1392,4095,4095
4.547744890998729,3763,2215,3173
4.5504333969984145,4095,4095,4095
4.5531211109992,4095,4095,4095
4.555810908001149,2495,4095,4095
4.558500830000412,1200,4095,4095
4.561188334999315,464,4095,4095
4.563879924000503,778,4095,4095
4.566569679998793,3802,4095,4095
4.569259018000594,4095,4095,4095
4.571948565000639,4095,4095,4095
4.5746393209992675,3382,4095,4095
4.577325785001449,1218,4095,4095
4.580014039998787,599,4095,4095
4.582703170999594,460,4095,4095
4.585389926000062,2304,4095,4095
4.588077972999599,4044,4095,3689
4.590766645000258,4095,4095,4095
4.593471984000644,3814,4095,4095
4.596226865000062,2199,4095,4095
4.598922536999453,855,4095,4095
4.6016167089983355,450,4095,4095
4.604305797998677,1089,4095,4095
4.607000177998998,3712,4095,4095
4.609692599999107,4095,4095,4095
4.612382646999322,4095,4095,4095
4.615073695000319,2684,4095,4095
4.617765283001063,1325,4095,4095
4.620454455998697,462,4095,4095
4.623145585999737,470,4095,4095
4.625837341001898,2615,4095,4095
4.62852430500061,4095,4095,4095
4.631214976998308,3747,3583,3647
4.633908566000173,3447,4095,4095
4.636598780001805,1867,4095,4095
4.639288951999333,657,4095,4095
4.641978291001578,454,4095,4095
4.644665421001264,869,2742,3113
4.647354217999236,3258,567,2496
4.650043140998605,4095,4095,4095
4.652730188001442,4095,4095,4095
4.655418693000684,2486,4095,4095
4.658106740000221,1133,4095,4095
4.6607959540015145,452,4095,4095
4.663489083999593,447,4095,4095
4.666178089999448,2935,4095,4095
4.668865970001207,4095,4095,4095
4.6715544760008925,4095,4095,4095
4.674241606000578,3377,4095,4095
4.676928737000708,1360,707,2633
4.679616992001684,875,4095,4095
4.682307748000312,471,4095,4095
4.684995878000336,1693,3549,3787
4.687684050000826,4095,1584,2910
4.690374014000554,4095,4095,4095
4.693062310998357,4095,4095,4095
4.695753441999841,4095,4095,4095
4.698446238999168,4095,4095,4095
4.7011379940013285,2625,4095,4095
4.703828458001226,2290,4095,4095
4.706517005000933,4095,4095,4095
4.7092036770009145,4095,4095,4095
4.7118926830007695,4095,4095,4095
4.714582895998319,2342,4095,4095
4.717271860001347,241,4095,4095
4.719961115999467,436,4095,4095
4.722652079999534,441,4095,4095
4.725341418001335,1295,4095,4095
4.72803146500155,2501,3475,3440
4.730721553998592,3488,4095,4095
4.733409810000012,2559,4095,4095
4.736100147998513,1501,4095,4095
4.738789861999976,468,4095,4095
4.741478283998731,433,4095,4095
4.744217039999057,816,4095,4095
4.7469105449999915,3563,4095,4095
4.749603842999932,4095,4095,4095
4.7522917649985175,4095,4095,4095
4.754982811999071,2826,4095,4095
4.757673692001845,1478,4095,4095
4.760363489000156,473,4095,4095
4.763056078001682,465,4095,4095
4.765744000000268,2538,4095,4095
4.7684314219986845,4073,4095,4095
4.771118677999766,4085,2433,3157
4.773807433000911,3697,4095,4095
4.776495105001231,2140,4095,4095
4.779182485999627,892,4095,4095
4.781871366001724,454,4095,4095
4.784558287999971,1298,4095,4095
4.787250626999594,3279,2000,2714
4.78994079900076,4095,4095,4095
4.792631180000171,4095,4095,4095
4.795323269001528,2852,4095,4095
4.798013440999057,1472,4095,4095
4.800699570998404,473,4095,4095
4.803387701998872,501,4095,4095
4.8060766240014345,3054,4095,4095
4.808764962999703,4095,4095,4095
4.811454218001018,4082,4095,4095
4.814144597999984,3637,4095,4095
4.8168311869994795,1706,3259,3365
4.819521776000329,878,4095,4095
4.822210197999084,453,4095,4095
4.82489870399877,1170,2513,3184
4.827598667001439,3641,645,2673
4.830287965000025,4095,4095,4095
4.832993719999649,4095,4095,4095
4.835690975000034,2800,4095,4095
4.838382272999297,1442,4095,4095
4.841072028000781,485,4095,4095
4.843763824999769,695,4095,4095
4.846454163998715,3571,4095,4095
4.849144793999585,4095,4095,4095
4.851838258000498,4095,4095,4095
4.854528264000692,3583,4095,4095
4.857219894001901,1504,2710,3317
4.859913191001397,852,4095,4095
4.863096614000824,463,4095,4095
4.865834328000346,2001,4095,4095
4.86856729200008,4095,4095,4095
4.871332339000219,4095,2889,3295
4.874081386999023,3970,4095,4095
4.876865516998805,2304,4095,4095
4.879657730998588,1023,4095,4095
4.882396820001304,461,4095,4095
4.885126200999366,1373,3191,3595
4.887855623001087,3915,1744,3031
4.89058667000063,4095,4095,4095
4.893314675999136,4095,4095,4095
4.896046305999334,2709,4095,4095
4.898778228001902,1360,4095,4095
4.901505234000069,471,4095,4095
4.9042909480012895,976,4095,4095
4.907022537001467,4095,4095,4095
4.909754667001835,4095,4095,4095
4.912472964999324,4095,4095,4095
4.915188012000726,3355,4095,4095
4.91790389200105,1738,4095,4095
4.920627105999301,615,4095,4095
4.923360778000642,527,4095,4095
4.926090199998725,3010,4095,4095
4.928816873001779,4095,4095,4095
4.931547420001152,4095,4095,4095
4.934276758998749,3798,4095,4095
4.9370047230004275,1673,1968,2608
4.939734727999166,966,4095,4095
4.942465233998519,462,4095,4095
4.94519544799914,1422,4095,4095
4.947928786001285,3894,2000,3090
4.950659792000806,4095,4095,4095
4.95338721400185,4095,4095,4095
4.956117761001224,2642,4095,4095
4.958847850000893,1295,4095,4095
4.961754439998913,461,4095,4095
4.964483362000465,1040,4095,4095
4.967211701001361,3841,4095,4065
4.969938373000332,4095,4095,4095
4.972661252999387,4095,4095,4095
4.975386466998316,2971,4095,4095
4.978115056001116,1509,4095,4095
4.980841144999431,475,4095,4095
4.983566734001215,496,4095,4095
4.986292322999361,3040,4095,4095
4.989014410999516,4095,4095,4095
4.9917381669984024,4095,4095,4095
4.994463506001921,3442,4095,4095
4.9971868860011455,1314,1232,2915
4.99991772499925,629,4095,4095
5.002651314000104,450,4095,4095
5.005380986000091,1763,4095,4095
5.008112534000247,3583,2868,3287
5.010905414001172,4095,4095,4095
5.013668752999365,3828,4095,4095
5.016399967000325,2222,4095,4095
5.019130847998895,927,4095,4095
5.021861770001124,464,4095,4095
5.024590900000476,1138,4095,4095
5.0273225310011185,3046,3260,3040
5.030053036000027,4095,4095,4095
5.032780166999146,4095,4095,4095
5.0355108809999365,2667,4095,4095
5.038280386001134,1307,4095,4095
5.041016433999175,462,4095,4095
5.0437504809997336,511,4095,4095
5.046481236000545,3193,4095,4095
5.0492088249993685,4095,4095,4095
5.051938496999355,4095,4095,4095
5.054667127998982,3404,4095,4095
5.057413966998865,1262,3019,3483
5.060156513998663,601,4095,4095
5.063404687000002,458,4095,4095
5.066101192998758,2169,4095,4095
5.068803782000032,4095,4095,4095
5.071525829000166,3954,4095,4095
5.074226376000297,3600,4095,4095
5.076916172998608,1892,3876,3463
5.079606970000896,849,4095,4095
5.082299141999101,454,4095,4095
5.084990563998872,1103,2449,3184
5.087683361998643,3511,686,2672
5.090377409000212,4095,4095,4095
5.0930896639983985,4095,4095,4095
5.095792420001089,2653,4095,4095
5.098487134000607,1289,4095,4095
5.101177181000821,459,4095,4095
5.103869310998562,610,4095,4095
5.106563649998861,3431,4095,4095
5.109253696999076,4095,4095,4095
5.1119470769990585,4095,4095,4095
5.11463970800105,3371,4095,4095
5.117328880001878,1171,2766,3327
5.120018802001141,503,4095,4095
5.122711141000764,448,4095,4095
5.125400771001296,1744,4095,4095
5.128090026999416,3457,3003,3310
5.130780073999631,4095,4095,4095
5.1334684130015376,3781,4095,4095
5.136200793000171,2225,4095,4095
5.138895590000175,895,4095,4095
5.141617470999336,449,4095,4095
5.144307810001919,784,4095,4095
5.146999982000125,3583,4095,4095
5.149692195998796,4095,4095,4095
5.15237961800085,4095,4095,4095
5.15507224799876,2833,4095,4095
5.1577653370004555,1403,4095,4095
5.160456426001474,453,4095,4095
5.163146973001858,454,4095,4095
5.166097687000729,2289,4095,4095
5.168831484999828,4095,4095,4095
5.171547490001103,3691,4095,4095
5.17434207900078,3447,4095,4095
5.177041792998352,1239,2032,2587
5.179735256999265,525,4095,4095
5.1824295539991,448,4095,4095
5.185123350998765,957,2739,3261
5.187820815001032,3199,1147,2791
5.190518362000148,4095,4095,4095
5.193212033998861,3922,4095,4095
5.1959093309997115,2416,4095,4095
5.198603920001915,1211,4095,4095
5.201299509000819,469,4095,4095
5.203997347998666,878,4095,4095
5.206691936000425,4069,4095,4095
5.209387275001063,4095,4095,4095
5.212081446999946,4095,4095,4095
5.214778993999062,4095,4095,4095
5.217471625001053,3476,4095,4095
5.220192714001314,3361,4095,4095
5.222889969001699,2227,4095,4095
5.22560814100143,4095,4095,4095
5.228303479998431,4095,3872,3473
5.230999152001459,4095,4095,4095
5.233697741001379,3463,4095,4095
5.236391580001509,1583,4095,4095
5.2390870439994615,449,4095,4095
5.241782715998852,444,4095,4095
5.244475054998475,493,4095,4095
5.247170976999769,2498,4095,4095
5.249867899001401,3495,4095,4095
5.252558028998465,2965,4095,4095
5.255252660001133,1918,4095,4095
5.257948249000037,771,4095,4095
5.260639837000781,448,4095,4095
5.263372385001276,458,4095,4095
5.2660826399987855,2276,4095,4095
5.268778020999889,4095,4095,4095
5.271473943001183,3631,3973,3862
5.274168489999283,3501,4095,4095
5.27685624500009,1987,4095,4095
5.2795500840002205,761,4095,4095
5.28224363100162,451,4095,4095
5.284930595000333,881,2554,3011
5.287623766998877,3286,421,2451
5.290321063999727,4095,4095,4095
5.2930130700005975,4095,4095,4095
5.295708284000284,2734,4095,4095
5.298406830999738,1361,4095,4095
5.301102544999594,464,4095,4095
5.303797092001332,547,4095,4095
5.306494013999327,3310,4095,4095
5.3091881860018475,4095,4095,4095
5.311883900001703,4095,4095,4095
5.314578655001242,3538,4095,4095
5.317270077001012,1423,1153,2852
5.3199638330006565,740,4095,4095
5.322659547000512,450,4095,4095
5.325351301999035,1342,4095,4095
5.328046057999018,3705,2330,3145
5.330744396000227,4095,4095,4095
5.333438735000527,4095,4095,4095
5.336132781998458,2624,4095,4095
5.338827578998462,1281,4095,4095
5.341544876999251,461,4095,4095
5.344238673998916,814,4095,4095
5.3469345119992795,3772,4095,4095
5.349630310000066,4095,4095,4095
5.352322815000662,4095,4095,4095
5.355016654000792,3472,4095,4095
5.357712034001452,1708,4095,4095
5.360400205998303,711,4095,4095
5.363106254000741,464,4095,4095
5.365803300999687,2423,4095,4095
5.36849434800024,4095,4095,4095
5.3711895199994615,4095,4095,3632
5.373882984000375,4095,4095,4095
5.376575238999067,2523,4095,4095
5.379267870001058,1225,4095,4095
5.381958459001908,464,4095,4095
5.3846522140011075,1296,4095,4095
5.387344636001217,3431,3986,3687
5.390039850000903,4095,4095,4095
5.392733896998834,4095,4095,4095
5.39543236100144,3414,4095,4095
5.3981292829994345,1766,4095,4095
5.400823621999734,640,4095,4095
5.405390880998311,539,4095,4095
5.408093344998633,3928,2302,3152
5.4107929749989125,4095,4095,4095
5.413486522000312,4095,4095,4095
5.416216069999791,2815,4095,4095
5.41891274199952,1408,4095,4095
5.4216094559997146,473,4095,4095
5.424304085998301,911,4095,4095
5.427001217001816,3904,4095,4095
5.429699054999219,4095,4095,4095
5.432389893998334,4095,4095,4095
5.435086107998359,3519,4095,4095
5.437782946999505,1808,4095,4095
5.440474868999445,748,4095,4095
5.443169207999745,469,4095,4095
5.445863296001335,2477,4095,4095
5.448561719000281,4095,4095,4095
5.451257848999376,4095,2882,3551
5.453953645999718,4095,4095,4095
5.456648527000652,2518,4095,4095
5.459348406999197,1216,4095,4095
5.4620438710007875,465,4095,4095
5.464776126998913,1328,4095,4095
5.467484381999384,3308,2928,2911
5.470182011998986,4095,4095,4095
5.472875434999878,4095,4095,4095
5.475568065001426,3343,4095,4095
5.478260362000583,1689,4095,4095
5.480952784000692,585,4095,4095
5.483647081000527,554,4095,4095
5.486341045001609,3030,4095,4095
5.489033716999984,4095,4095,4095
5.491730390000157,4095,4095,4095
5.494424728000013,3760,4095,4095
5.497118399998726,1590,2466,2653
5.499810738998349,855,4095,4095
5.502509578000172,459,4095,4095
5.505205666999245,1089,2630,3200
5.50790108900037,3440,946,2709
5.5105961359986395,4095,4095,4095
5.513289599999553,4095,4095,4095
5.515986064001481,2624,4095,4095
5.518683153000893,1255,4095,4095
5.521377950000897,462,4095,4095
5.524077997000859,621,4095,4095
5.52677316900008,3423,4095,4095
5.5294654659992375,4095,4095,4095
5.532184554998821,4095,4095,4095
5.534882477000792,3367,4095,4095
5.5375993580018985,1187,4095,4095
5.540292820998729,541,4095,4095
5.542988993001927,457,4095,4095
5.545682624000619,2011,4095,4095
5.5483747129983385,3566,3967,3599
5.551070843001071,4095,4095,4095
5.553766764998727,3845,4095,4095
5.556461312000465,2274,4095,4095
5.559155442999327,960,4095,4095
5.561850156998844,454,4095,4095
5.564542620999418,947,4095,4095
5.567239667998365,3718,4095,4095
5.569934840001224,4095,4095,4095
5.5726274289991125,4095,4095,4095
5.575319559000491,3021,4095,4095
5.578011730998696,1557,4095,4095
5.580703611998615,481,4095,4095
5.583396574998915,464,4095,4095
5.58608912300042,2475,4095,4095
5.588782460999937,4035,4095,4095
5.591478049998841,4058,2827,3298
5.594174263998866,3789,4095,4095
5.596866936000879,2207,4095,4095
5.599564067000756,927,4095,4095
5.602258947001246,459,4095,4095
5.604953244001081,1187,4095,3751
5.6076497079993715,3285,1168,2526
5.610341546998825,4095,4095,4095
5.613035802001832,4095,4095,4095
5.615731557998515,2957,4095,4095
5.6184259799993015,1504,4095,4095
5.621119193998311,478,4095,4095
5.623815824001213,555,4095,4095
5.626511955000751,3066,4095,4095
5.629204667999147,4095,4095,4095
5.631900257001689,4095,4095,4095
5.634597095999197,3542,4095,4095
5.637288810001337,1403,778,2559
5.639984648998507,677,4095,4095
5.642679279000731,450,4095,4095
5.645371660000819,1120,4095,4095
5.648065331999533,3355,1815,2994
5.650761254000827,4095,4095,4095
5.65345492599954,4058,4095,4095
5.656183390001388,2416,4095,4095
5.658893103998707,1072,4095,4095
5.6616161089987145,453,4095,4095
5.6643127809984435,655,4095,4095
5.667043452998769,3459,4095,4095
5.669751834000635,4095,4095,4095
5.672445088999666,4095,4095,4095
5.675138386999606,3062,4095,4095
5.67783926699849,1393,4095,4095
5.680536856001709,469,4095,4095
5.6832322779991955,459,4095,4095
5.685925199999474,2160,4095,4095
5.6886179559987795,3600,4095,4095
5.691312669001491,4095,3271,3538
5.694009424998512,3691,4095,4095
5.696700805001456,2139,4095,4095
5.69939510200129,835,4095,4095
5.702088024998375,455,4095,4095
5.704779405001318,1040,4095,4095
5.707475577000878,2857,3709,3632
5.710173249000945,4095,4095,4095
5.712868463000632,4095,4095,4095
5.715566468999896,2701,4095,4095
5.718261349000386,1419,4095,4095
5.7209528960011085,485,4095,4095
5.723698277000949,545,4095,4095
5.726405949000764,2976,4095,4095
5.729099578999012,4095,4095,4095
5.7317937100015115,4095,4095,4095
5.734490257000289,4095,4095,4095
5.7371832210010325,3346,2974,3335
5.7398776010013535,3306,4095,4095
5.742574232001061,2434,4095,4095
5.745268904000113,2976,2704,3227
5.747965826001746,4095,802,2702
5.750659623001411,4095,4095,4095
5.753351336999913,4095,4095,4095
5.756044384001143,2512,4095,4095
5.7587417229988205,848,4095,4095
5.761433478000981,447,4095,4095
5.764129150000372,413,4095,4095
5.766823322999699,2240,4095,4095
5.7695426200007205,3376,4095,4095
5.772236708999117,3234,4095,4095
5.774933631000749,2102,4095,4095
5.777626469000097,461,3773,3712
5.78031618300156,451,4095,4095
5.783008188998792,451,4095,4095
5.785711568998522,1649,4095,4095
5.788407490999816,3022,3306,3408
5.791103247000137,4095,4095,4095
5.793796835998364,3568,4095,4095
5.7964894239994464,2257,4095,4095
5.799181387999852,1083,4095,4095
5.801876559999073,455,4095,4095
5.804569149000599,959,4095,4095
5.807265488001576,3646,4095,4095
5.809960909999063,4095,4095,4095
5.812655082001584,4095,4095,4095
5.815351171000657,3069,4095,4095
5.818938636999519,1648,4095,4095
5.82164880900018,574,4095,4095
5.824344148000819,720,4095,4095
5.8270397359992785,3504,4095,4095
5.8297348669984785,4095,4095,4095
5.832427039000322,4095,4095,4095
5.8351217939998605,3377,4095,4095
5.837817633000668,1299,4095,4095
5.840511804999551,704,4095,4095
5.843207227000676,464,4095,4095
5.845902649998607,2255,4095,4095
5.848639987998467,3749,4095,3778
5.851349076998304,4095,4095,4095
5.854047166001692,3943,4095,4095
5.856740380000701,2411,4095,4095
5.859436635000748,1181,4095,4095
5.862130933001026,464,4095,4095
5.864823979998619,1265,4095,4095
5.867559319001884,3415,4095,3804
5.87026832400079,4095,4095,4095
5.872964204001619,4095,4095,4095
5.8756618769984925,3280,4095,4095
5.878357424000569,1731,4095,4095
5.8810501789994305,695,4095,4095
5.883747476000281,578,4095,4095
5.886440898000728,3015,4095,4095
5.889135654000711,4095,4095,4095
5.891829576001328,4095,4095,4095
5.894524956998794,3857,4095,4095
5.897216795001441,1826,3200,3371
5.899913175999245,1095,4095,4095
5.902609556000243,464,4095,4095
5.905303769999591,1178,2391,3187
5.908000358998834,3485,631,2653
5.910697823001101,4095,4095,4095
5.913390286001231,4095,4095,4095
5.916082333998929,2803,4095,4095
5.918777881001006,1472,4095,4095
5.921471510999254,496,4095,4095
5.924193850001757,729,4095,4095
5.926889356000174,3450,4095,4095
5.929604819000815,4095,4095,4095
5.932291950000945,4095,4095,4095
5.934985913998389,3446,4095,4095
5.937682210998901,1360,4095,4095
5.940378675000829,765,4095,4095
5.943073013000685,462,4095,4095
5.945765601998573,2091,4095,4095
5.94845635800084,3648,3039,3335
5.95120298799884,4095,4095,4095
5.953922076998424,3987,4095,4095
5.956615082999633,2384,4095,4095
5.959308462999616,1134,4095,4095
5.9620014680003806,460,4095,4095
5.964689724001801,1051,4095,4095
5.967379353998695,3783,4095,4095
5.970072192998487,4095,4095,4095
5.9727619490004145,4095,4095,4095
5.975471953999659,3120,4095,4095
5.978184585001145,1610,4095,4095
5.980884881999373,511,4095,4095
5.98358063699925,471,4095,4095
5.986276643001474,2524,4095,4095
5.9889693559998705,3791,4095,4095
5.991662779000762,3814,3143,3533
5.994359951000661,3578,4095,4095
5.997054415001912,2067,4095,4095
5.99974725300126,843,4095,4095
6.002441633998387,450,4095,4095
6.005133263999596,796,2838,3035
6.0078286450007,3056,948,2530
6.010524442001042,4095,4095,4095
6.013276656001835,3991,4095,4095
6.016009120001399,2482,4095,4095
6.01870499999859,1138,4095,4095
6.02139671400073,454,4095,4095
6.024091511000734,511,4095,4095
6.026783307999722,2831,4095,4095
6.029474688999471,4095,4095,4095
6.032199985998886,4095,4095,4095
6.034896657998615,2876,4095,4095
6.037613912998495,1003,2304,3187
6.040306544000487,467,4095,4095
6.043002383001294,447,4095,4095
6.045697138000833,1642,4095,4095
6.048390768999525,3170,2449,3202
6.05108619100065,4095,4095,4095
6.05378107100114,3523,4095,4095
6.056474285000149,2064,4095,4095
6.059168749001401,782,4095,4095
6.061860795998655,448,4095,4095
6.064552093001112,697,4095,4095
6.067249389998324,3327,4095,4095
6.069973187000869,4095,4095,4095
6.072676234998653,3967,4095,4095
6.07537178200073,2559,4095,4095
6.078152037000109,1232,4095,4095
6.080892251000478,448,4095,4095
6.083583589999762,460,4095,4095
6.086272136999469,2235,4095,4095
6.0889569760001905,3371,4095,3910
6.091649689999031,3393,2864,3326
6.094345737001277,3367,4095,4095
6.097038408999651,1836,4095,4095
6.099733331000607,630,4095,4095
6.102423169999383,451,4095,4095
6.105113633999281,1002,3789,3747
6.10780788899865,2971,1535,2629
6.110499145001086,4095,4095,4095
6.113189857998805,4018,4095,4095
6.115879239001515,2482,4095,4095
6.118568993999361,1167,4095,4095
6.121260166000866,449,4095,4095
6.123951547000615,483,4095,4095
6.126642052000534,2743,4095,4095
6.129332641001383,4095,4095,4095
6.132022854999377,4095,4095,4095
6.134715276999486,3366,4095,4095
6.137403074000758,1229,966,2559
6.14009937100127,538,4095,4095
6.142789293000533,452,4095,4095
6.145477466001466,1008,3316,3664
6.148198345999845,3218,935,2735
6.150889352000377,4095,4095,4095
6.153602940001292,3785,4095,4095
6.156292821000534,2250,4095,4095
6.158982910001214,907,4095,4095
6.161674707000202,445,4095,4095
6.164363921001495,595,4095,4095
6.167052758999489,3181,4095,4095
6.169742180998583,4095,4095,4095
6.172429604001081,4095,4095,4095
6.175121691998356,2768,4095,4095
6.177810364999459,857,4095,4095
6.180497411998658,453,4095,4095
6.183188334001898,447,4095,4095
6.185876630999701,1810,4095,4095
6.188565511001798,3259,3329,3417
6.191253266999411,4095,4095,4095
6.193944522001402,3467,4095,4095
6.196633528001257,1948,4095,4095
6.1993218249990605,653,4095,4095
6.202011997000227,447,4095,4095
6.204700169000716,752,4095,4095
6.207387466001819,3421,4095,4095
6.210074055001314,4095,4095,4095
6.212768894001783,4025,4095,4095
6.215463191001618,2558,4095,4095
6.218152820998512,1185,4095,4095
6.220841702001053,444,4095,4095
6.223532291001902,448,4095,4095
6.22622458800106,2083,4095,4095
6.228916342999582,3279,4095,3679
6.231606515000749,3343,2448,3154
6.234298437000689,3297,4095,4095
6.236987026000861,1764,4095,4095
6.2396774900007586,551,4095,4095
6.242365995,444,4095,4095
6.245055084000342,1152,4095,4095
6.247745964999922,3111,2924,2987
6.250436137001088,4095,4095,4095
6.253124142000161,4095,4095,4095
6.25581473100101,3782,4095,4095
6.25850631999856,2397,4095,4095
6.261196700001165,1569,4095,4095
6.26388833099918,1587,4095,4095
6.26657954500115,4095,4095,4095
6.2692697579987,4095,4095,4095
6.272002139001415,4095,4095,4095
6.274696811000467,4050,4095,4095
6.277388317001169,1440,1904,2603
6.2800793220012565,463,4095,4095
6.282771119000245,439,4095,4095
6.28546066600029,497,2447,3200
6.288173796998308,2495,688,2656
6.290863968999474,3539,4095,4095
6.293583057999058,2554,4095,4095
6.29627460499978,1309,4095,4095
6.298965860001772,447,4095,4095
6.301657490999787,432,4095,4095
6.304346288001398,317,4095,4095
6.307036627000343,2162,4095,4095
6.309726423998654,3488,4095,4095
6.312416012999165,3290,4095,4095
6.31510660099957,2128,4095,4095
6.31779669000025,415,2285,3183
6.320488321001903,443,4095,4095
6.323180783998396,447,4095,4095
6.3258717479984625,1639,4095,4095
6.328563920000306,3085,4095,3611
6.331253884000034,4095,4095,4095
6.3339455150016875,3404,4095,4095
6.336633437000273,1872,4095,4095
6.339323858999705,605,4095,4095
6.342011905999243,444,4095,4095
6.344700577999902,729,4095,4095
6.3473910840002645,3439,4095,4095
6.350080214000627,4095,4095,4095
6.352770093999425,3970,4095,4095
6.35546284999873,2529,4095,4095
6.358152896998945,1129,4095,4095
6.360844443999667,447,4095,4095
6.3635379080005805,446,4095,4095
6.366228872000647,2142,4095,4095
6.368917709998641,3450,4095,3775
6.371608215999004,3525,2315,3049
6.374298513001122,3399,4095,4095
6.376987019000808,1803,4095,4095
6.379675191001297,543,4095,4095
6.382363279000856,448,4095,4095
6.385052117999294,1039,4095,4095
6.387740706999466,2919,3583,3119
6.390429753999342,4095,4095,4095
6.393118426000001,4062,4095,4095
6.39580788999956,2491,4095,4095
6.398499770999479,1131,4095,4095
6.401186817998678,449,4095,4095
6.403877531000035,463,4095,4095
6.40656732899879,2548,4095,4095
6.409256334001839,3662,4095,3675
6.411946256001102,3498,3344,3520
6.414636678000534,3311,4095,4095
6.417329225001595,1712,4095,4095
6.420021606001683,496,4095,4095
6.422713528001623,445,4095,4095
6.4254035750018375,833,2108,2963
6.428094163999049,3157,310,2524
6.430784503001632,4095,4095,4095
6.433473050001339,3838,4095,4095
6.436201805001474,2288,4095,4095
6.438896019000822,934,4095,4095
6.441611607999221,448,4095,4095
6.444304780001403,473,4095,4095
6.446997036000539,3211,4095,4095
6.449689707998914,4095,4095,4095
6.452379712998663,4095,4095,4095
6.455070343999978,2975,4095,4095
6.457761181998649,974,1977,3152
6.460450480000873,462,4095,4095
6.4631405680011085,448,4095,4095
6.465833739999653,1583,4095,4095
6.468523537998408,3423,2801,3311
6.4712135849986225,4095,4095,4095
6.473938131999603,3681,4095,4095
6.476630011999077,2141,4095,4095
6.479320809001365,788,4095,4095
6.482011481999507,447,4095,4095
6.484700779001287,741,4095,4095
6.487389450998307,3539,4095,4095
6.490078748000087,4095,4095,4095
6.492765752998821,4095,4095,4095
6.495454258998507,2763,4095,4095
6.498144722998404,1175,4095,4095
6.500832935998915,457,4095,4095
6.503521899998304,448,4095,4095
6.5062119889989845,2231,4095,4095
6.508896161001758,3712,3607,3455
6.511589500001719,3817,2597,3317
6.51428354699965,3535,4095,4095
6.516971886001556,1979,4095,4095
6.51965968299919,679,4095,4095
6.522347437999997,447,4095,4095
6.525034860998858,1023,4095,4095
6.527723073999368,2969,3421,3120
6.530412495998462,4095,4095,4095
6.53309929399984,4095,4095,4095
6.53578829899925,2538,4095,4095
6.5384778039988305,1176,4095,4095
6.54116472700116,446,4095,4095
6.543853315000888,461,4095,4095
6.546543404001568,2531,4095,4095
6.549232075998589,3723,4095,4095
6.551958331998321,3542,4095,4095
6.554668461998517,3331,4095,4095
6.5573607590013125,1702,4095,4095
6.560055057001591,487,4095,4095
6.562747103998845,439,4095,4095
6.565437026001746,830,2239,3096
6.568128989998513,3193,343,2531
6.570820036999066,4095,4095,4095
6.573543541999243,3795,4095,4095
6.576240130998485,2269,4095,4095
6.5789337620008155,906,4095,4095
6.58162564200029,450,4095,4095
6.584316189000674,508,4095,4095
6.587006236000889,3045,4095,4095
6.589696325001569,4095,4095,4095
6.592384579998907,4095,4095,4095
6.595073919001152,2909,4095,4095
6.597764425001515,944,2170,3175
6.60045284700027,452,4095,4095
6.60314293600095,443,4095,4095
6.605830691001756,1201,4095,4095
6.608520572000998,3372,1936,3071
6.6112142439997115,4095,4095,4095
6.613905040998361,3540,4095,4095
6.616594212999189,2017,4095,4095
6.6192857599999115,693,4095,4095
6.621974974001205,441,4095,4095
6.624663853999664,641,4095,4095
6.627355068001634,3413,4095,4095
6.6300453650001145,4095,4095,4095
6.6327338709998,3967,4095,4095
6.635424459000205,2478,4095,4095
6.638113590001012,791,4095,4095
6.640804886999831,446,4095,4095
6.643496225999115,441,4095,4095
6.646186689999013,1968,4095,4095
6.648877445000835,3317,4095,3655
6.6515679090007325,4095,4095,3838
6.654256705998705,3184,4095,4095
6.6569465860011405,1647,4095,4095
6.659636884000065,463,4095,4095
6.662327346999518,443,4095,4095
6.665015603000938,829,4095,4095
6.667708067001513,2747,3523,3680
6.670397779998893,4095,4095,4095
6.673087619001308,3726,4095,4095
6.675818415998947,2263,4095,4095
6.678511712998443,895,4095,4095
6.681202301999292,423,4095,4095
6.683893682999042,451,4095,4095
6.686583271999552,2416,4095,4095
6.689272652001819,3578,4095,4095
6.6919628659998125,3327,4095,4095
6.694653538001148,2923,4095,4095
6.697341917999438,1478,4095,4095
6.70003179899868,458,4095,4095
6.702722513000481,443,4095,4095
6.705412892999448,674,2288,3050
6.708104689998436,3082,529,2473
6.710795195998799,4095,4095,4095
6.713484159001382,3933,4095,4095
6.716216289998556,2496,4095,4095
6.718908045000717,1311,4095,4095
6.721600009001122,507,4095,4095
6.724292514998524,827,4095,4095
6.7269834780017845,4095,4095,4095
6.729674025998975,4095,4095,4095
6.732364030998724,4095,4095,4095
6.735055245000694,4095,4095,4095
6.737746375001734,2731,1394,2941
6.740437339001801,1805,4095,4095
6.743129553000472,582,4095,4095
6.7458205170005385,1607,4095,4095
6.748509147000732,4089,2373,3187
6.751198278001539,4095,4095,4095
6.7538903249987925,3495,4095,4095
6.756579413999134,1719,4095,4095
6.759269627000322,449,4095,4095
6.76195829900098,442,4095,4095
6.764646805000666,415,4095,4095
6.767335435000859,2480,4095,4095
6.770029106999573,3350,4095,4095
6.77272007099964,2859,4095,4095
6.775413035000383,1679,4095,4095
6.77810399900045,0,4095,4095
6.780793713001913,441,4095,4095
6.783484759998828,437,4095,4095
6.786175306999212,1535,4095,4095
6.788865562000865,2835,3696,3486
6.791554151001037,3847,4095,4095
6.794244198001252,2810,4095,4095
6.796932994999224,1584,4095,4095
6.799622875998466,470,4095,4095
6.802317380999739,448,4095,4095
6.805007012000715,863,4095,4095
6.807699351000338,3709,4095,4095
6.810389106001821,4095,4095,4095
6.81307927799935,4095,4095,4095
6.815770867000538,2490,4095,4095
6.818462663999526,1099,4095,4095
6.8211513360001845,448,4095,4095
6.823842967001838,453,4095,4095
6.826532847000635,2559,4095,4095
6.829223269000067,4061,4095,4095
6.831914400001551,3804,3163,3459
6.834609821999038,3423,4095,4095
6.837298951999401,1757,4095,4095
6.839990041000419,499,4095,4095
6.8426800050001475,446,4095,4095
6.845368177000637,767,2935,3101
6.84805993199916,3387,979,2540
6.85075193800003,4095,4095,4095
6.853441359999124,4095,4095,4095
6.856131406999339,2480,4095,4095
6.858825120998517,1082,4095,4095
6.861546209998778,446,4095,4095
6.864240214999882,487,4095,4095
6.866933470999356,3351,4095,4095
6.869624850998662,4095,4095,4095
6.8723136900007376,4095,4095,4095
6.875010570001905,3440,4095,4095
6.877731493001193,1202,676,2671
6.880444205999083,487,4095,4095
6.883194461999665,446,4095,4095
6.885954384000797,1365,4095,4095
6.888656390001415,4095,2730,3234
6.891347519998817,4095,4095,4095
6.89403856699937,4045,4095,4095
6.896728905998316,2290,4095,4095
6.899419287001365,895,4095,4095
6.902110374998301,448,4095,4095
6.904801048000081,794,4095,4095
6.907492970000021,4073,4095,4095
6.910184307998861,4095,4095,4095
6.912872021999647,4095,4095,4095
6.915569819000666,3175,4095,4095
6.918261783001071,1467,4095,4095
6.920952413998748,467,4095,4095
6.9236436690007395,451,4095,4095
6.926336674998311,2525,4095,4095
6.929027138001402,4095,3888,3542
6.9317193099996075,4095,2931,3488
6.934411399000965,3920,4095,4095
6.937100780000037,2201,4095,4095
6.939790993001225,849,4095,4095
6.942482706999726,451,4095,4095
6.945173045998672,1249,4095,4095
6.947864967998612,3583,3303,3068
6.950558431999525,4095,4095,4095
6.9532499790002475,4095,4095,4095
6.9559394429998065,3127,4095,4095
6.958629615000973,1505,4095,4095
6.961316911998438,471,4095,4095
6.964007709000725,490,4095,4095
6.966698505999375,3349,4095,4095
6.9693895950003935,4095,4095,4095
6.972080101000756,4095,4095,4095
6.974770980999892,3957,4095,4095
6.9774600279997685,2174,4095,3920
6.9801866589987185,832,4095,4095
6.982884123000986,451,4095,4095
6.985605919999216,1195,2192,3134
6.988297341998987,4095,338,2505
6.990987222001422,4095,4095,4095
6.993677644000854,4095,4095,4095
6.996366733001196,2875,4095,4095
6.999055446998682,1367,4095,4095
7.001746619000187,463,4095,4095
7.004435124999873,432,4095,4095
7.007124463001674,3856,4095,4095
7.009812886000873,4095,4095,4095
7.012505140999565,4095,4095,4095
7.015258521998476,3633,4095,4095
7.017982484998356,1393,2064,3137
7.020668823999586,593,4095,4095
7.023360996001429,458,4095,4095
7.026054793001094,2175,4095,4095
7.028744841001753,4095,4095,3670
7.0314355959999375,4095,4095,4095
7.034127309998439,4095,4095,4095
7.036815898998611,2459,4095,4095
7.0395063210016815,1023,4095,4095
7.042197326001769,455,4095,4095
7.044889497999975,925,4095,4095
7.047580170001311,4095,4095,4095
7.050270093001018,4095,4095,4095
7.052957640000386,4095,4095,4095
7.055656729000475,3318,4095,4095
7.058357650999824,1535,4095,4095
7.061045655998896,467,4095,4095
7.063735370000359,461,4095,4095
7.066424749998987,2683,4095,4095
7.069110463999095,4095,4095,3887
7.071799220000685,4095,2349,3106
7.074487808000413,3951,4095,4095
7.0771773970009235,2230,4095,4095
7.079900944001565,847,4095,4095
7.082591074999073,453,4095,4095
7.085303204999946,1335,4095,4095
7.0880293769987475,3760,2067,2736
7.090736215999641,4095,4095,4095
7.0934263880008075,4095,4095,4095
7.09611497700098,2850,4095,4095
7.098803524000687,1328,4095,4095
7.101490904999082,459,4095,4095
7.104212576999998,493,4095,4095
7.106905373999325,3440,4095,4095
7.109599295999942,4095,4095,4095
7.11228975999984,4095,4095,4095
7.1149803070002235,3520,4095,4095
7.117670313000417,1264,869,2549
7.120358359999955,497,4095,4095
7.123047532000783,449,4095,4095
7.125736786998459,1183,3051,3463
7.128425209000852,3987,458,2606
7.1311157980017015,4095,4095,4095
7.133805511999526,4095,4095,4095
7.1364933920012845,2428,4095,4095
7.1391823980011395,980,4095,4095
7.141874111999641,455,4095,4095
7.144563284000469,624,4095,4095
7.147252163998928,3747,4095,4095
7.149941169998783,4095,4095,4095
7.152631758999632,4095,4095,4095
7.155320431000291,3447,4095,4095
7.158010561000992,1168,3003,3440
7.160698692001461,481,4095,4095
7.163388572000258,455,4095,4095
7.16607716100043,2160,4095,4095
7.16876554099872,4095,2550,3230
7.171453629998723,4095,4095,4095
7.174143593998451,4095,4095,4095
7.176833599001839,2497,4095,4095
7.179522521000763,1121,4095,4095
7.182210527000279,461,4095,4095
7.184900782001932,1139,4095,4095
7.187590038000053,4095,4095,4095
7.190278084999591,4095,4095,4095
7.192966465001518,4095,4095,4095
7.195654346000083,4095,4095,4095
7.198343643001863,3499,4095,4095
7.201031190001231,2477,4095,4095
7.203720237001107,2004,4095,4095
7.206410908998805,4095,4095,4095
7.2091002900015155,4095,4095,3551
7.211790419998579,4095,2382,3011
7.214487384000677,4095,4095,4095
7.217178263999813,3039,4095,4095
7.219870312001149,1215,4095,4095
7.2225625249993755,448,4095,4095
7.225253030999738,1130,4095,4095
7.227942828001687,3329,2929,2958
7.230639124998561,4095,4095,4095
7.233329213999241,3895,4095,4095
7.236022219000006,2087,4095,4095
7.238716307998402,606,4095,4095
7.241407313998934,448,4095,4095
7.244098944000143,457,4095,4095
7.246789533000992,2495,4095,4095
7.249478246998478,4033,4095,4095
7.252209918999142,3598,4095,4095
7.25490313300179,3315,4095,4095
7.257596930001455,1410,3330,3431
7.2602864770015,496,4095,4095
7.262980023999262,451,4095,4095
7.2656717380014015,1222,2470,3187
7.268363118000707,4095,629,2663
7.271054707001895,4095,4095,4095
7.273747128998366,4095,4095,4095
7.276438634999067,3285,4095,4095
7.279129765000107,1570,4095,4095
7.281822854001803,501,4095,4095
7.284513900998718,752,4095,4095
7.287205115000688,4095,4095,4095
7.289895453999634,4095,4095,4095
7.292586084000504,4095,4095,4095
7.295276715001819,4095,4095,4095
7.297965595000278,1779,2911,3415
7.300655933999224,1014,4095,4095
7.303347772998677,468,4095,4095
7.306039360999421,2087,4095,4095
7.308729575001053,4095,2713,3212
7.311419664001733,4095,4095,4095
7.314109918999748,4095,4095,4095
7.316797675000998,3354,4095,4095
7.319489346999035,1685,4095,4095
7.322179935999884,611,4095,4095
7.324869733001833,1104,4095,4095
7.327568404998601,4095,4095,4095
7.330259244001354,4095,4095,4095
7.332949415998883,4095,4095,4095
7.335641671001213,4095,4095,4095
7.3383324690003064,2064,4095,4095
7.341021557000204,1109,4095,4095
7.343711063000228,533,4095,4095
7.346401401999174,3312,4095,4095
7.349090824001905,4095,4095,3681
7.351782621000893,4095,3984,3538
7.354473085000791,4095,4095,4095
7.357161215000815,3408,4095,4095
7.3598516790007125,1710,4095,4095
7.362541268001223,670,4095,4095
7.365232522999577,1631,4095,4095
7.367924944999686,4095,4095,4095
7.3706146590011485,4095,4095,4095
7.373303080999904,4095,4095,4095
7.375994336998701,4095,4095,4095
7.378685424999276,2295,4095,4095
7.381374181000865,1062,4095,4095
7.38406443599888,702,4095,4095
7.386755982999603,3775,4095,4095
7.3894454469991615,4095,4095,3807
7.392137868999271,4095,3919,3897
7.394829290999041,4095,4095,4095
7.39754842199909,2944,4095,3706
7.400243969001167,1521,4095,4095
7.402932891000091,563,4095,4095
7.405622105001385,1524,2190,3123
7.408309610000288,4095,402,2480
7.410999116000312,4095,4095,4095
7.413691996000125,4095,4095,4095
7.416382502000488,3654,4095,4095
7.419073381999624,1966,4095,4095
7.421764554001129,816,4095,4095
7.424454392999905,815,4095,4095
7.4271461899988935,4095,4095,4095
7.429839070999151,4095,4095,4095
7.4325298680014384,4095,4095,4095
7.435221290001209,4095,4095,4095
7.437911503999203,1980,1007,2821
7.440600843001448,1200,4095,4095
7.443291348001367,478,4095,4095
7.445982270000968,1840,4095,4095
7.448671900998306,4095,1872,2959
7.451364239001123,4095,4095,4095
7.454055162001168,4095,4095,4095
7.456743834001827,3392,4095,4095
7.459435880999081,1667,4095,4095
7.462128470000607,592,4095,4095
7.464819975000864,990,4095,4095
7.467512231000001,4095,4095,4095
7.470203278000554,4095,4095,4095
7.472891116001847,4095,4095,4095
7.475581080001575,3923,4095,4095
7.478270961000817,1610,4095,4095
7.4809592999990855,832,4095,4095
7.483651721999195,462,4095,4095
7.486343060001673,2672,4095,4095
7.489033316000132,4095,3729,3511
7.491722237999056,4095,4095,4095
7.494415617999039,4095,4095,4095
7.497107291001157,2606,4095,4095
7.499795796000399,1168,4095,4095
7.502484385000571,464,4095,4095
7.505173681998713,1226,4095,4095
7.507864104001783,4095,4095,4095
7.510552610001469,4095,4095,4095
7.513242447999801,4095,4095,4095
7.515932079000777,3345,4095,4095
7.518623043000844,1611,4095,4095
7.521312548000424,475,4095,4095
7.524002886999369,471,4095,4095
7.526694184001826,3099,4095,4095
7.5293852309987415,4095,4095,4095
7.532074777998787,4095,3183,3411
7.5347669500006305,3869,4095,4095
7.5374594970016915,2118,4095,4095
7.540172753000661,763,4095,4095
7.542868008000369,453,4095,4095
7.545586139000079,977,2641,3016
7.548278769001627,3951,610,2480
7.550971067001228,4095,4095,4095
7.553662821999751,4095,4095,4095
7.556353952000791,2751,4095,4095
7.559048040999187,1263,4095,4095
7.561740255001496,459,4095,4095
7.5644301360007375,555,4095,4095
7.567121599000529,3564,4095,4095
7.56981197999994,4095,4095,4095
7.57250015200043,4095,4095,4095
7.575190031999227,3483,4095,4095
7.577879288000986,1265,643,2640
7.580568042998493,535,4095,4095
7.583258548998856,447,4095,4095
7.585949011998309,1387,4095,4095
7.588640851001401,4095,2071,3134
7.591331897998316,4095,4095,4095
7.594021945998975,4095,4095,4095
7.596711243000755,2352,4095,4095
7.599399747999996,912,4095,4095
7.602088628998899,449,4095,4095
7.604775592000806,653,4095,4095
7.60746693100009,3810,4095,4095
7.610156603001087,4095,4095,4095
7.612845899999229,4095,4095,4095
7.615538073001517,2818,4095,4095
7.618227620001562,743,4095,4095
7.620916083000338,452,4095,4095
7.62360725599865,449,4095,4095
7.626297385999351,2102,4095,4095
7.6289857660012785,3951,3559,3472
7.631677438999759,4095,4095,4095
7.63436756900046,3472,4095,4095
7.63705574100095,1758,4095,4095
7.6397468719987955,469,4095,4095
7.6424360439996235,443,4095,4095
7.6451241329996265,822,4095,4095
7.64781651299927,3918,4095,4095
7.650506185000268,4095,4095,4095
7.653199898999446,4079,4095,4095
7.655892571001459,2346,4095,4095
7.658584284999961,897,4095,4095
7.661276415001339,450,4095,4095
7.66396600400185,452,4095,4095
7.666656550998596,2450,4095,4095
7.669345432001137,3943,4095,4095
7.672035269999469,3583,2815,3247
7.6747291089996,3136,4095,4095
7.6774239059996034,1522,4095,4095
7.680117078998592,457,4095,4095
7.682814833999146,449,4095,4095
7.685590965000301,862,4095,3675
7.688325719998829,3794,1434,2634
7.692019269001321,4095,4095,4095
7.694760900001711,4095,4095,4095
7.697492154999054,2960,4095,4095
7.700261744001182,1745,4095,4095
7.702992957998504,1066,4095,4095
7.705724755000119,2116,2227,3053
7.708451802998752,4095,368,2432
7.711181474998739,4095,4095,4095
7.71392556399951,4095,4095,4095
7.716656944001443,2863,4095,4095
7.719391242000711,861,4095,4095
7.722121789000084,441,4095,4095
7.724864293999417,364,4095,4095
7.7275960500010115,2865,4095,4095
7.730327055000089,3755,4095,4095
7.733055685999716,2702,4095,4095
7.735787900001014,1280,4095,4095
7.738516989000345,272,4095,4095
7.741243952001241,438,4095,4095
7.743973583001207,441,4095,4095
7.7467038389986556,1597,4095,4095
7.749434844001371,2589,4095,3730
7.75216564099901,2369,2909,3306
7.754899188999843,1899,4095,4095
7.75763311099945,626,4095,4095
7.760362865999923,447,4095,4095
7.763092912999127,439,4095,4095
7.765822752000531,623,2354,3163
7.768549257998529,3031,538,2624
7.771280222001224,4095,4095,4095
7.774009226999624,3083,4095,4095
7.7767365660001815,1535,4095,4095
7.779467238000507,458,4095,4095
7.782199827001023,445,4095,4095
7.784931623999,532,4095,4095
7.78766362999886,3535,4095,4095
7.7904035940009635,4095,4095,4095
7.793131266000273,3754,4095,4095
7.7958587300017825,2119,4095,4095
7.7985866099988925,576,4095,4095
7.801314948999789,445,4095,4095
7.804042537998612,450,4095,4095
7.806774460001179,2469,4095,4095
7.80950138299886,3885,4095,4095
7.81227909700101,3355,4095,4095
7.815012185001251,2630,4095,4095
7.817743191000773,599,2400,2657
7.8204705720017955,447,4095,4095
7.823200868999265,448,4095,4095
7.825930833001621,958,3010,3559
7.8286593800003175,3536,1201,2827
7.831388968999818,4095,4095,4095
7.834117974001856,3364,4095,4095
7.836845521000214,1619,4095,4095
7.839575235000666,461,4095,4095
7.842304781999701,448,4095,4095
7.84503353800028,608,4095,4095
7.847769709998829,3839,4095,4095
7.850501007000275,4095,4095,4095
7.853228930001933,3875,4095,4095
7.855957726998895,2139,4095,4095
7.858688024000003,683,4095,4095
7.861416570998699,447,4095,4095
7.864146077001351,454,4095,4095
7.866877415999625,2713,4095,4095
7.869635838000249,4095,4095,4095
7.872364384998946,3442,4095,4095
7.875095182000223,2683,4095,4095
7.877836938001565,629,2812,3287
7.880567359999986,449,4095,4095
7.883413865998591,448,4095,4095
7.886143537998578,1174,3771,3951
7.888837834998412,3942,3116,3375
7.891528591000679,4095,4095,4095
7.894221596001444,3356,4095,4095
7.896906976999162,1589,4095,4095
7.899598398998933,461,4095,4095
7.902290278998407,441,4095,4095
7.904980201001308,591,4095,4095
7.907670997999958,3918,4095,4095
7.9103622539987555,4095,4095,4095
7.9130506760011485,3963,4095,4095
7.915740723001363,2193,4095,4095
7.918431019999844,272,4095,4095
7.9211316510009055,443,4095,4095
7.923833656001079,447,4095,4095
7.926527912000893,2370,4095,4095
7.9292166250015725,4095,4095,3685
7.9319063809998624,3713,3105,3519
7.934601803000987,2837,4095,4095
7.93729493399951,1283,4095,4095
7.939985480999894,449,4095,4095
7.942676777998713,445,4095,4095
7.94536624200191,1003,4095,4095
7.948056747001829,3282,3216,3109
7.950746294001874,4095,4095,4095
7.953433632999804,3604,4095,4095
7.956122388000949,1900,4095,4095
7.958812477001629,510,4095,4095
7.961499899000046,445,4095,4095
7.9642212799990375,457,4095,4095
7.966911326999252,2911,4095,4095
7.969601331999002,4095,4095,4095
7.972292088001268,3341,4095,4095
7.9749847179991775,2514,4095,4095
7.9776734320003015,1005,4095,4084
7.9803602710017,448,4095,4095
7.983051817998785,448,4095,4095
7.98575228199843,853,2209,3106
7.9884527460017125,3603,489,2594
7.99115945900121,4095,4095,4095
7.993859840000368,3377,4095,4095
7.996552553999209,1555,4095,4095
7.9992435589992965,422,4095,4095
8.001933315001224,439,4095,4095
8.004623778000678,451,4095,4095
8.007313701000385,3459,4095,4095
8.01000324800043,4095,4095,4095
8.012692210999376,4025,4095,4095
8.015384549998998,2157,4095,4095
8.018124805999832,128,1452,2929
8.020857685998635,439,4095,4095
8.02355927499957,439,4095,4095
8.026252739000483,1859,4095,4095
8.028941953001777,3906,2528,3176
8.031631792000553,4095,4095,4095
8.034327964000113,2852,4095,4095
8.037020676998509,1255,4095,4095
8.039712808000331,446,4095,4095
8.042402855000546,441,4095,4095
8.045091444000718,738,4095,4095
8.047781365999981,4095,4095,4095
8.050471455000661,4095,4095,4095
8.05315983499895,3772,4095,4095
8.055850174001534,1942,4095,4095
8.05853938799919,446,4095,4095
8.06122655999934,443,4095,4095
8.06391706499926,445,4095,4095
8.066607279000891,2546,4095,4095
8.069298701000662,4095,4095,4095
8.071991331999016,3663,2417,2991
8.074682171001768,2779,4095,4095
8.077371134000714,1186,4095,4095
8.080059430998517,446,4095,4095
8.082747478998499,443,4095,4095
8.085443026000576,1136,4095,4095
8.088138197999797,3691,1969,2659
8.090829036998912,4095,4095,4095
8.093606916998397,3723,4095,4095
8.096334881000075,1878,4095,4095
8.099027511998429,475,4095,4095
8.101715392000187,444,4095,4095
8.1059155260009,447,4095,4095
8.10861232300158,4095,837,2688
8.111302745001012,4095,4095,4095
8.113995250001608,3495,4095,4095
8.116683214000659,1667,4095,4095
8.119388178001827,457,4095,4095
8.122080599998299,443,4095,4095
8.124769147001643,608,4095,4095
8.12745769400135,4095,4095,4095
8.130150282999239,4095,4095,4095
8.13283937199958,4095,4095,4095
8.135534336001001,2327,4095,4095
8.138230466000095,258,3603,3626
8.140919512999972,445,4095,4095
8.143608893999044,442,4095,4095
8.14629827400131,2213,4095,4095
8.148988655000721,4095,3349,3334
8.151678243000788,4095,4095,4095
8.154367374001595,3136,4095,4095
8.157054379000328,1347,4095,4095
8.15974396800084,448,4095,4095
8.162435515001562,439,4095,4095
8.16512568699909,848,4095,4095
8.167814943000849,4095,4095,4095
8.170503532001021,4095,4095,4095
8.173191162000876,3980,4095,4095
8.175881126000604,2063,4095,4095
8.178569298001094,582,4095,4095
8.181255970001075,443,4095,4095
8.183955851000064,400,4095,4095
8.186646355999983,2770,4095,4095
8.189334986000176,4095,4095,3817
8.192024283998762,3801,2833,3466
8.194715581001219,2881,4095,4095
8.197405793998769,1235,4095,4095
8.200095550000697,448,4095,4095
8.202785014000256,384,4095,4095
8.205473601999984,1249,4095,4095
8.208198233001895,4095,2196,2753
8.210889488000248,4095,4095,4095
8.213603743999556,3885,4095,4095
8.216294248999475,2032,4095,4095
8.218984838000324,663,4095,4095
8.221675885000877,447,4095,4095
8.224368391001917,541,4095,4095
8.227065104998474,4095,4095,4095
8.229756651999196,4095,4095,4095
8.232443323999178,4095,4095,4095
8.235132038000302,4095,4095,4095
8.237842459999229,2181,1040,2543
8.240555215001223,1673,4095,4095
8.243255179000698,1126,4095,4095
8.2459533930014,2844,2970,3440
8.24864652299948,4095,1046,2724
8.251343321000604,4095,4095,4095
8.254039450999699,4095,4095,4095
8.256736373001331,3365,4095,4095
8.259433504001208,1170,4095,4095
8.262128842001403,443,4095,4095
8.264821305998339,460,4095,4095
8.267518144999485,4095,4095,4095
8.270211817001837,4095,4095,4095
8.272904238998308,3674,4095,4095
8.275598828000511,1707,4095,4095
8.278291958999034,0,4095,4095
8.280984214001364,439,4095,4095
8.283679135998682,437,4095,4095
8.286374849998538,1993,4095,4095
8.289070397000614,3957,3853,3535
8.29176740299954,4095,4095,4095
8.294470991000708,2735,4095,4095
8.297165205000056,1232,4095,4095
8.299860669001646,455,4095,4095
8.302555883001332,444,4095,4095
8.305249097000342,1173,4095,4095
8.307942477000324,4095,4095,4095
8.310634607001703,4095,4095,4095
8.313329280001199,4095,4095,4095
8.31602124300116,2559,4095,4095
8.318717457001185,1115,4095,4095
8.321410462998756,458,4095,4095
8.324106259999098,464,4095,4095
8.326801307001006,3792,4095,4095
8.32949639599974,4095,4095,4095
8.332223150999198,4095,2998,3298
8.334919698001613,3648,4095,4095
8.33761407899874,1883,4095,4095
8.340305876001366,631,4095,4095
8.34300033999898,457,4095,4095
8.345695470001374,1473,2834,3061
8.348387016998458,4095,381,2491
8.351082523000514,4095,4095,4095
8.353775945000962,4095,4095,4095
8.356466658999125,2709,4095,4095
8.359171580999828,1269,4095,4095
8.361887669998396,464,4095,4095
8.364588841999648,688,4095,4095
8.367287846998806,4095,4095,4095
8.369984685999952,4095,4095,4095
8.372678650001035,4095,4095,4095
8.375374405000912,3719,4095,4095
8.378070452999964,1456,1334,2911
8.38076324999929,781,4095,4095
8.383460379998724,458,4095,4095
8.386155676998897,2294,4095,4095
8.38884801599852,4095,1627,2871
8.391545271999348,4095,4095,4095
8.394245693998528,4095,4095,4095
8.396942158000456,2781,4095,4095
8.399638038001285,1365,4095,4095
8.40233204299875,493,4095,4095
8.405025006999495,1147,4095,4095
8.407716928999434,4095,4095,4095
8.410410352000326,4095,4095,4095
8.413100940000731,4095,4095,4095
8.415797737001412,3735,4095,4095
8.418494492998434,1968,4095,4095
8.42118679000123,873,4095,4095
8.423881836999499,464,4095,4095
8.426582134001364,4016,4095,4095
8.429276473001664,4095,4095,4095
8.431972062000568,4095,3377,3579
8.434666984001524,4095,4095,4095
8.43735865599956,2771,4095,4095
8.440052578000177,1402,4095,4095
8.442747708999377,533,4095,4095
8.445441214000311,1993,4095,4095
8.448147260998667,4095,3286,3122
8.450844891998713,4095,4095,4095
8.453566814001533,4095,4095,4095
8.456263069998386,3546,4095,4095
8.458961117001309,1856,4095,4095
8.461658872001863,763,4095,4095
8.464350918999116,788,4095,4095
8.467047800000728,4095,4095,4095
8.469742929999484,4095,4095,4095
8.472434061000968,4095,4095,4095
8.475129190999724,4095,4095,4095
8.47782178000125,1849,2849,3310
8.480511576999561,1104,4095,4095
8.483206707998761,471,4095,4095
8.485901962998469,2018,2540,3194
8.488595467999403,4095,594,2634
8.49129239100148,4095,4095,4095
8.493987729001674,4095,4095,4095
8.496683192999626,3146,4095,4095
8.499377864998678,1523,4095,4095
8.502072079001664,537,4095,4095
8.504763250999531,1005,4095,4095
8.507454089998646,4095,4095,4095
8.510145429001568,4095,4095,4095
8.512837643000239,4095,4095,4095
8.515533814999799,3754,4095,4095
8.518227611999464,1479,4080,3780
8.52092515899858,805,4095,4095
8.523623413999303,463,4095,4095
8.526317795000068,3200,4095,4095
8.529012091999903,4095,2770,3195
8.531708806000097,4095,4095,4095
8.534403894998832,4095,4095,4095
8.53709835799964,2525,4095,4095
8.539795446999051,1136,4095,4095
8.542490660998737,458,4095,4095
8.545184582999354,1417,4095,4095
8.547880922000331,4095,4095,4095
8.550577636000526,4095,4095,4095
8.553272599998309,4095,4095,4095
8.555969354998524,3344,4095,4095
8.558663861000241,1559,4095,4095
8.56135699099832,511,4095,4095
8.564053122001496,509,4095,4095
8.566749377001543,4053,4095,4095
8.56944238199867,4095,3638,3379
8.572148179999203,4095,2363,3151
8.57484572699832,4095,4095,4095
8.577569982000568,2224,4095,4095
8.58026411299943,925,4095,4095
8.582960493000428,458,4095,4095
8.585658749001595,1535,3408,3691
8.58835246200033,4095,655,2467
8.591048301001138,4095,4095,4095
8.593745932001184,4095,4095,4095
8.596439646000363,2989,4095,4095
8.599132942999859,1456,4095,4095
8.60182490599982,490,4095,4095
8.604517954001494,797,4095,4095
8.607209751000482,4095,4095,4095
8.609900505998667,4095,4095,4095
8.612591803001123,4095,4095,4095
8.615287975000683,3837,4095,4095
8.617986064000434,1530,851,2559
8.620680986001389,830,4095,4095
8.62337824199858,463,4095,4095
8.626075121999747,2145,3136,3549
8.628766460999032,4095,1456,2842
8.631459924999945,4095,4095,4095
8.634156305000943,4095,4095,4095
8.636847976998979,2718,4095,4095
8.639542649998475,1289,4095,4095
8.642236863001017,466,4095,4095
8.64492928600157,1037,4095,4095
8.647625416000665,4095,4095,4095
8.650325130001875,4095,4095,4095
8.653021884998452,4095,4095,4095
8.655717391000508,3521,4095,4095
8.658413563000067,1278,4095,4095
8.661107610001636,642,4095,4095
8.663805323998531,464,4095,4095
8.666500120998535,3536,4095,4095
8.66919158499877,4095,4095,3621
8.671887381999113,4095,4095,4095
8.674581929000851,4095,4095,4095
8.677271518001362,2448,4095,4095
8.679964398001175,1109,4095,4095
8.682660987000418,464,4095,4095
8.68535511799928,1700,4095,4095
8.688054831000045,4095,4095,4095
8.690752545000578,4095,4095,4095
8.693445633998635,4095,4095,4095
8.696150472998852,3409,4095,4095
8.698843019999913,1671,4095,4095
8.701562817001104,592,4095,4095
8.704255656000896,609,4095,4095
8.706947785998636,4095,4095,4095
8.709640500001115,4095,4095,4095
8.712335256001097,4095,3728,3730
8.715032344000065,4095,4095,4095
8.717727600000217,2314,4095,4095
8.720418230001087,1017,4095,4095
8.72311544400145,464,4095,4095
8.725813033001032,1770,2557,3063
8.728504121998412,4095,358,2479
8.731199211000785,4095,4095,4095
8.73389354900064,4095,4095,4095
8.736578595999163,2880,4095,4095
8.739271434998955,1391,4095,4095
8.741966731999128,472,4095,4095
8.744661404998624,841,4095,4095
8.747357410000404,4095,4095,4095
8.75005416500062,4095,4095,4095
8.752744337998593,4095,4095,4095
8.755440343000373,3653,4095,4095
8.758136057000229,1386,1019,2802
8.760828521000803,701,4095,4095
8.763523734000046,464,4095,4095
8.766219032000663,2253,4095,4095
8.768909454000095,4095,2270,3088
8.771604459001537,4095,4095,4095
8.774348130998987,4095,4095,4095
8.777042554000218,2480,4095,4095
8.779739641999186,1119,4095,4095
8.782434980999824,458,4095,4095
8.785131237000314,1104,4095,4095
8.787828658998478,4095,4095,4095
8.790524706000724,4095,4095,4095
8.793215753001277,4095,4095,4095
8.795910550001281,3463,4095,4095
8.798602472001221,1506,4095,4095
8.801295018998644,634,4095,4095
8.803986066999641,470,4095,4095
8.806677614000364,3851,4095,4095
8.80936961900079,4095,4095,3662
8.812061458000244,4095,3326,3583
8.814754505001474,4095,4095,4095
8.817448051999236,2319,4095,4095
8.820152307998796,1033,4095,4095
8.822848938001698,466,4095,4095
8.82557002699832,1982,4095,4095
8.828264241001307,4095,3132,3041
8.830960371000401,4095,4095,4095
8.833656042999792,4095,4095,4095
8.836354216000473,4095,4095,4095
8.839054178999504,2617,4095,4095
8.841753310000058,1735,4095,4095
8.844445482001902,1872,4095,4095
8.847145029001695,4095,4095,4095
8.84984316000191,4095,4095,4095
8.852535373000137,4095,4095,4095
8.85523117000048,4095,4095,4095
8.857926675998897,4048,1428,2551
8.860619723000127,3322,4095,4095
8.863314604001062,1654,4095,4095
8.86601006699857,2654,2631,3215
8.868702323001344,4095,595,2606
8.871398202998535,4095,4095,4095
8.87409633399875,3710,4095,4095
8.876790923000954,1879,4095,4095
8.879483845001232,465,4095,4095
8.882179017000453,448,4095,4095
8.884908314001223,298,4095,4095
8.887661695000133,4095,4095,4095
8.890395449998323,4095,4095,4095
8.893126538998331,4095,4095,4095
8.895853753001575,2442,4095,4095
8.898555382998893,491,4095,4095
8.901247346999298,459,4095,4095
8.903940560998308,417,4095,4095
8.906639400000131,3444,4095,4095
8.90932827999859,4095,4095,3633
8.912018119001004,4095,4095,4091
8.914707583000563,4095,4095,4095
8.917395921998832,2276,4095,4095
8.92008855200038,992,4095,4095
8.922778307001863,461,4095,4095
8.925467354998545,1767,4095,4095
8.928192401999695,4095,4095,4095
8.930886324000312,4095,4095,4095
8.933600746000593,4095,4095,4095
8.936298543001612,3327,4095,4095
8.938995590000559,1623,4095,4095
8.941688345999864,578,4095,4095
8.944377018000523,652,4095,4095
8.947069606998411,4095,4095,4095
8.949759736999113,4095,4095,3879
8.952446659000998,4095,4095,4095
8.955138330999034,4095,4095,4095
8.957829836999736,2271,4095,3992
8.960518341998977,1047,4095,4095
8.963208639001095,469,4095,4095
8.965900478000549,1857,2342,3142
8.968589650001377,4095,399,2448
8.971282948001317,4095,4095,4095
8.973983160998614,4095,4095,4095
8.976675999998406,3183,4095,4095
8.97936763100006,1567,4095,4095
8.982056552998984,587,4095,4095
8.984745557998394,879,4095,4095
8.987439230000746,4095,4095,4095
8.990134360999946,4095,4095,4095
8.992824491000647,4095,4095,4095
8.995513580000988,3988,4095,4095
8.998204751998855,1665,1803,3123
9.000894633001735,1007,4095,4095
9.003584138001315,444,4095,4095
9.006272851998801,2407,4095,4095
9.008961981999164,4095,2267,3050
9.011649570998998,4095,4095,4095
9.014336452000862,4095,4095,4095
9.017023956999765,3088,4095,4095
9.019763921001868,1569,4095,4095
9.022481342999527,647,4095,4095
9.025171306999255,1455,4095,4095
9.027861021000717,4095,4095,4095
9.030553568001778,4095,4095,4095
9.033243865000259,4095,4095,4095
9.035935412000981,3856,4095,4095
9.038631251001789,1615,4095,4095
9.041321797998535,1035,4095,4095
9.044012386999384,650,4095,4095
9.046702059000381,4095,4095,4095
9.049391355998523,4095,4095,3734
9.052083195001615,4095,4095,3861
9.054773908999778,4095,4095,4095
9.057466122001642,2816,4095,4095
9.060198877999937,1447,4095,4095
9.062893132999307,576,4095,4095
9.06560743099908,1993,4095,4095
9.068292810999992,4095,3132,3024
9.070987107999827,4095,4095,4095
9.073681404999661,4095,4095,4095
9.076370744001906,3478,4095,4095
9.079063083001529,1811,4095,4095
9.08175217200187,752,4095,4095
9.084439926999039,715,4095,4095
9.08713359900139,4095,4095,4095
9.089830520999385,4095,4095,3815
9.092521610000404,4095,4095,4095
9.095213616001274,4080,4095,4095
9.097901788001764,2032,4095,3523
9.100601668000309,966,4095,4095
9.103320382000675,462,4095,4095
9.106012053998711,1882,2536,3214
9.108700559998397,4095,1003,2736
9.111390482001298,4095,4095,4095
9.114079236998805,4095,4095,4095
9.11676624300162,2750,4095,4095
9.11945704000027,1294,4095,4095
9.122146919999068,466,4095,4095
9.124835801001609,842,4095,4095
9.127527347998694,4095,4095,4095
9.130217477999395,4095,4095,4095
9.132904942001915,4095,4095,4095
9.135592906000966,3456,4095,4095
9.138300536000315,1182,1934,3125
9.140988541999832,543,4095,4095
9.143676339001104,419,4095,4095
9.146366052998928,2288,4095,4095
9.149053600001935,4095,2247,3088
9.151740938999865,4095,4095,4095
9.154429985999741,4079,4095,4095
9.157118824001373,2199,4095,4095
9.15980703799869,854,4095,4095
9.162494334999792,442,4095,4095
9.16518217400153,1067,4095,4095
9.167871470999671,4095,4095,4095
9.17056447700088,4095,4095,4095
9.173252107000735,4095,4095,4095
9.175942488000146,2881,4095,4095
9.178630492999218,827,4095,4095
9.18131937400176,464,4095,4095
9.184007921001466,409,4095,4095
9.186697384000581,3377,4095,4095
9.189384932000394,4095,4095,3662
9.192074020000291,4095,4095,4061
9.194762858998729,3776,4095,4095
9.197450823001418,1985,4095,4095
9.200141703000554,702,4095,4095
9.202832292001403,457,4095,4095
9.205548464000458,1535,4095,4095
9.208239594998304,4095,4095,4095
9.210927391999576,4095,4095,4095
9.213614314001461,4095,4095,4095
9.216308445000323,2693,4095,4095
9.219002450001426,1231,4095,4095
9.2216943300009,457,4095,4095
9.224383502998535,538,4095,4095
9.227074258000357,3907,4095,4095
9.229767305001587,4095,4095,3857
9.232459893999476,4095,4095,4095
9.235154441001214,3520,4095,4095
9.237844405000942,1798,4095,4095
9.240533118998428,561,4095,4095
9.243222624001646,454,4095,4095
9.245913046001078,1447,2813,3085
9.248602301999199,4095,392,2446
9.25129251600083,4095,4095,4095
9.253984187998867,4095,4095,4095
9.256673859999864,2404,4095,4095
9.25936261500101,1005,4095,4095
9.262051287001668,459,4095,4095
9.264741209000931,687,4095,4095
9.267434048000723,4095,4095,4095
9.27012451200062,4095,4095,4095
9.272816059001343,4095,4095,4095
9.275505440000416,3255,4095,4095
9.278195819999382,982,769,2711
9.280884325999068,465,4095,4095
9.283573581000383,460,4095,4095
9.286263711001084,1840,3839,3855
9.2889517170006,4095,1951,2951
9.291641471998446,4095,4095,4095
9.294332477998978,3978,4095,4095
9.297022982998897,2149,4095,4095
9.299714655000571,791,4095,4095
9.302403203000722,455,4095,4095
9.305091416001233,816,4095,4095
9.30778154699874,4095,4095,4095
9.310469801999716,4095,4095,3573
9.313158058001136,4095,4095,4095
9.315847437999764,2814,4095,4095
9.318538527000783,763,4095,3765
9.321227616001124,457,4095,4095
9.323918370999309,458,4095,4095
9.326610085001448,2896,4095,4095
9.329301590001705,4095,2797,3216
9.331992637999065,4095,4095,4095
9.33468435100076,3696,4095,4095
9.337373564998416,1936,4095,4095
9.340064279000217,641,4095,4095
9.342753368000558,453,4095,4095
9.345441123001365,1314,4095,4095
9.348130587000924,4095,4095,4095
9.350823926000885,4095,4095,4095
9.353541098000278,4095,4095,4095
9.356235020000895,2608,4095,4095
9.358925816999545,1139,4095,4095
9.361619489001896,459,4095,4095
9.36431099499896,435,4095,4095
9.367003833998751,3552,4095,4095
9.369695547000447,4095,4095,4095
9.37238434399842,4095,3053,3383
9.375075725001807,3470,4095,4095
9.3777653549987,1719,4095,4095
9.380455028000142,500,4095,4095
9.383144658000674,448,4095,4095
9.385833954998816,1230,3053,3151
9.388522543998988,4095,1442,2608
9.391210673999012,4095,4095,4095
9.393902554998931,4095,4095,4095
9.396593269000732,2391,4095,4095
9.399286315998324,1014,4095,4095
9.40197427900057,451,4095,4095
9.404664117999346,115,4095,3604
9.407353290000174,4095,4095,4095
9.410041129001911,4095,4095,4095
9.412729010000476,4095,4095,4095
9.41541664000033,3494,4095,4095
9.41810610399989,1166,987,2546
9.420794525998645,529,4095,4095
9.42348732300161,457,4095,4095
9.426179411999328,1722,3103,3431
9.42887012600113,4095,858,2671
9.431561380999483,4095,4095,4095
9.434250053000142,4095,4095,4095
9.436936974998389,2422,4095,4095
9.439627314000973,1046,4095,4095
9.442316861001018,460,4095,4095
9.44500299200081,750,4095,4095
9.447693581001658,4095,4095,4095
9.450382003000414,4095,4095,4095
9.453071299998555,4095,4095,4095
9.455759971999214,3422,4095,4095
9.45845410200127,1135,3519,3629
9.46114285799922,541,4095,4095
9.463833030000387,401,4095,4095
9.466521993999777,2805,4095,4095
9.469210915998701,4095,3617,3430
9.47190254599991,4095,4095,4095
9.474593467999512,4060,4095,4095
9.477281682000466,2236,4095,4095
9.479970520998904,907,4095,4095
9.482658650998928,454,4095,4095
9.485345990000496,1233,4095,4095
9.488036162001663,4095,4095,4095
9.490724585000862,4095,4095,4095
9.493412922998687,4095,4095,4095
9.496102220000466,2965,4095,4095
9.498793143000512,1299,4095,4095
9.501479189999372,467,4095,4095
9.504211194998788,373,4095,4095
9.50690140900042,3475,4095,4095
9.50961633100087,4095,4095,3686
9.512307253000472,4095,2368,3038
9.514996759000496,3761,4095,4095
9.517685014001472,2002,4095,4095
9.520373561001179,720,4095,4095
9.523065983001288,459,4095,4095
9.525756864000869,1641,4095,4095
9.528445911000745,4095,2187,2767
9.531134290999034,4095,4095,4095
9.533824796999397,4095,4095,4095
9.536515176998364,2753,4095,4095
9.539204433000123,1290,4095,4095
9.541894229998434,463,4095,4095
9.544580901998415,419,4095,4095
9.547270907998609,4095,4095,4095
9.549962995999522,4095,4095,4095
9.552654668001196,4095,4095,4095
9.555347215999063,3854,4095,4095
9.558037471000716,1642,2781,2955
9.560726018000423,1069,4095,4095
9.56341648200032,511,4095,4095
9.566954363999685,2109,2485,3196
9.56965595300062,4095,454,2559
9.5723462499991,4095,2496,3163
9.575037255999632,4095,4095,4095
9.577727302999847,4095,4095,4095
9.580411432998517,3358,4095,4095
9.583106564001355,2369,4095,4095
9.58580106899899,3866,4095,4095
9.588492408001912,4095,2074,2722
9.591183288001048,4095,4095,4095
9.593873835001432,4095,4095,4095
9.596562632999849,3441,4095,4095
9.599251846000698,1361,4095,4095
9.601941435001208,454,4095,4095
9.604630857000302,395,4095,4095
9.607321404000686,3438,4095,4095
9.610009325999272,4095,4095,4095
9.612698373999592,3501,4095,4095
9.61538746199949,2558,4095,4095
9.618074509999133,524,1861,2597
9.62076176499977,453,4095,4095
9.623451979001402,447,4095,4095
9.626143067998782,1249,2735,3231
9.628833239999949,4095,1039,2774
9.631524202999572,4095,4095,4095
9.634213751000061,4095,4095,4095
9.636902255999303,2406,4095,4095
9.639593677999073,1136,4095,4095
9.642284683999605,464,4095,4095
9.644972688998678,831,4095,4095
9.64766290300031,4095,4095,4095
9.650356367001223,4095,4095,3543
9.653047496998624,4095,4095,4095
9.655738336001377,3904,4095,4095
9.658428800001275,1637,1815,3067
9.661136389000603,1006,4095,4095
9.663826685999084,497,4095,4095
9.666517107998516,2807,4095,4095
9.66920636299983,4095,2833,3231
9.671897284999432,4095,4095,4095
9.674588499001402,4095,4095,4095
9.67727733799984,3230,4095,4095
9.679971051999019,1628,4095,4095
9.682662224000524,678,4095,4095
9.68534943800114,1421,4095,4095
9.688040192999324,4095,4095,4095
9.69073032400047,4095,4095,4095
9.69341770399842,4095,4095,4095
9.696107875999587,4095,4095,4095
9.698797132001346,2174,4095,4095
9.701484845001687,1184,4095,4095
9.704213267999876,727,4095,4095
9.706902314999752,3984,4095,4095
9.709594320000178,4095,4095,4095
9.712284992001514,4095,2675,3522
9.714974081001856,4095,4095,4095
9.717664045001584,3281,4095,4095
9.720353134001925,1717,4095,4095
9.723045555998397,847,4095,4095
9.72573643600117,2181,4095,4095
9.72842410800149,4095,2860,2913
9.731112821998977,4095,4095,4095
9.733803494000313,4095,4095,4095
9.736492457999702,4006,4095,4095
9.739183172001503,2290,4095,4095
9.74187251100011,1219,4095,4095
9.744563973999902,959,4095,4095
9.747256522001408,4095,4095,4095
9.749947027001326,4095,4095,3725
9.752636240998982,4095,4095,4095
9.755326287999196,4095,4095,4095
9.758016168001632,2354,2975,3344
9.760704632000852,1668,4095,4095
9.763394138000876,887,4095,4095
9.76608522600145,2102,2315,3126
9.768773107000015,4095,619,2640
9.771463486998982,4095,4095,4095
9.77415274300074,4095,4095,4095
9.776843456998904,3760,4095,4095
9.779533878998336,2153,4095,4095
9.78222292600185,1163,4095,4095
9.784912680999696,1282,4095,4095
9.787602853000863,4095,4095,4095
9.790294192000147,4095,4095,4095
9.792983239000023,4095,4095,4095
9.79567420300009,4095,4095,4095
9.798365167000156,2127,1745,3115
9.801054671999736,1471,4095,4095
9.803744510998513,783,4095,4095
9.806435850001435,2370,4095,4095
9.809124729999894,4095,2229,3088
9.811814151998988,4095,4095,4095
9.814503574998525,4095,4095,4095
