time,y1,y2,y3
0.006087845002184622,2467,4095,4095
0.008852351002133219,2481,4095,4095
0.011600190002354793,2502,4095,4095
0.014338070002850145,2069,4095,3874
0.01707311700010905,2559,4095,4095
0.019806956002867082,2225,4095,4095
0.022545795000041835,2445,4095,4095
0.025279217003117083,2421,4095,4095
0.02801580600134912,1930,4095,3751
0.03076477000286104,2495,4095,4095
0.03350590100308182,2262,4095,4095
0.03624474000025657,2645,4095,4095
0.03925632900063647,1932,4095,3760
0.04198458500104607,1890,3328,3423
0.044678465001197765,2448,4095,4095
0.04737347100308398,1921,1152,2482
0.05006710100133205,2491,4095,4095
0.05275748200074304,2255,4095,4095
0.05545402900315821,2096,2286,3081
0.058145742001215694,1952,1859,2894
0.06084083099995041,2235,4095,4095
0.06353262800257653,2443,4095,4095
0.06622084200353129,2464,4095,4095
0.06890313900294132,2481,4095,4095
0.07159210300233099,2498,4095,4095
0.0742830250019324,2064,4095,3855
0.07697115600240068,2559,4095,4095
0.07965841100303805,2194,4095,4095
0.08234575000096811,2418,4095,4095
0.08503433900114032,2453,4095,4095
0.08772326100006467,1921,1850,3024
0.09043076600210043,2490,4095,4095
0.09313481300341664,2064,4095,4095
0.09583173600185546,2084,4095,4095
0.09852228300223942,1937,3157,3272
0.1012116630008677,2351,4095,4095
0.10390133500186494,2445,4095,4095
0.10659054900315823,2461,4095,4095
0.10927892900144798,2481,4095,4095
0.11197022700071102,2381,4095,4095
0.11466135700175073,2101,4095,4095
0.1173531960012042,1529,4095,3990
0.12004311800046708,225,4095,4095
0.12273212300351588,427,4095,4095
0.1254232960018271,356,4095,4095
0.1281145090033533,0,4095,4095
0.13080389000242576,431,4095,4095
0.13349168700005976,0,4095,4095
0.13618131700059166,429,4095,4095
0.13887007300218102,0,4095,3595
0.14155974500317825,0,2548,3070
0.1442485840016161,428,4095,4095
0.14693588100271882,427,4095,4095
0.1496249700030603,427,4095,4095
0.1523131000030844,176,4095,4095
0.15500773100211518,414,4095,4095
0.15769361100319657,0,641,2421
0.16038770000159275,183,4095,4095
0.16307474700079183,425,4095,4095
0.165761044001556,414,4095,4095
0.16844804900028976,223,4095,4095
0.1711335970030632,430,4095,4095
0.17381918500177562,0,4095,3632
0.17654444100116962,427,4095,4095
0.17923540500123636,0,4095,3663
0.18195391000335803,0,3197,3362
0.1846427490017959,391,4095,4095
0.18733262900059344,0,4006,3715
0.19002538500353694,426,4095,4095
0.19270980700093787,0,4095,3426
0.19539868700303487,0,2547,3015
0.19808911000291118,0,798,2621
0.2007760730011796,0,4095,4095
0.20347441200283356,428,4095,4095
0.20616166800027713,426,4095,4095
0.2088487979999627,258,4095,4095
0.21153755400155205,378,4095,4095
0.21424089200081653,0,3333,2975
0.21692864800206735,426,4095,4095
0.2196141530002933,0,4095,4095
0.22230440900239046,0,4095,4095
0.22499337300178013,267,4095,4095
0.22768171100324253,0,320,2432
0.23037009200197645,429,4095,4095
0.2330576390013448,0,3744,3312
0.23574456100323005,0,3583,3578
0.23843194100118126,0,2235,2980
0.24116190500353696,25,4095,4095
0.2438521190015308,428,4095,4095
0.24654129100235878,431,4095,4095
0.24922804700327106,419,4095,4095
0.2519163440010743,273,4095,4095
0.25460589100111974,0,4095,3315
0.25730385499991826,430,4095,4095
0.2599970680021215,78,4095,4095
0.26268715700280154,422,4095,4095
0.26537382900278317,343,4095,4095
0.2680607100010093,0,3155,3341
0.2709731320028368,424,4095,4095
0.27365738800290274,0,4095,3762
0.2763458930021443,427,4095,4095
0.27903485700153396,0,4095,3516
0.28172086300037336,0,2803,3187
0.28440866000164533,427,4095,4095
0.2870992900025158,432,4095,4095
0.2897883370023919,435,4095,4095
0.29247775900148554,159,4095,4095
0.29516547300227103,624,4095,4095
0.2978518540003279,636,367,2397
0.30057281700283056,1487,4095,4095
0.30326161500124726,2142,4095,4095
0.30597499500072445,2399,4095,4095
0.30866216700087534,2413,4095,4095
0.31135088100199937,2544,4095,4095
0.3140419280025526,2075,4095,3777
0.316730392001773,2621,4095,4095
0.31942073100071866,1910,4095,4095
0.32211077800093335,1872,4095,4095
0.32479882500047097,2431,4095,4095
0.32748833000005106,1903,1971,2625
0.3301775030013232,2470,4095,4095
0.33286450800005696,2126,4095,4095
0.3355537630013714,2070,2289,3023
0.3382420610032568,1941,1485,2805
0.34095302400237415,2214,4095,4095
0.34365094600070734,2427,4095,4095
0.34634199400170473,2443,4095,4095
0.3490317070027231,2460,4095,4095
0.3517218800006958,2468,4095,4095
0.3544225930018001,2038,4095,3773
0.3571188070018252,2559,4095,4095
0.3598108960031823,2127,4095,4095
0.36250219300200115,2371,4095,4095
0.3651891990011791,2430,4095,4095
0.3678758710011607,1905,1521,2907
0.370562501000677,2473,4095,4095
0.37324825700125075,2003,4095,4095
0.3759354700014228,2082,4095,4095
0.3786246010022296,1932,2892,3179
0.3813176480034599,2217,4095,4095
0.3840106530005869,2425,4095,4095
0.38669895000202814,2447,4095,4095
0.38938637300088885,2470,4095,4095
0.39208167000106187,2407,4095,4095
0.3947729250030534,2066,4095,4095
0.3974613890022738,2455,4095,4095
0.40015056100310176,2245,4095,4095
0.402838858000905,2419,4095,4095
0.4055270720018598,2414,4095,4095
0.40822149400264607,1908,4095,3738
0.4109115000028396,2477,4095,4095
0.4136007970009814,2059,4095,4095
0.41629113500312087,2644,4095,4095
0.4189793080004165,1920,4095,3601
0.4216668550034228,1866,2743,3051
0.424356985000486,2425,4095,4095
0.4270463240027311,2449,4095,4095
0.4297333290014649,2471,4095,4095
0.43242350200307555,2303,4095,4095
0.43511109000246506,2656,4095,4095
0.43779847100086045,1969,1280,2536
0.44048935099999653,2270,4095,4095
0.4432204400000046,2417,4095,4095
0.4459494460024871,2436,4095,4095
0.44864190900261747,2317,4095,4095
0.45133366500158445,2479,4095,4095
0.45402362900131266,2032,4095,3801
0.45671688400034327,2249,4095,4095
0.45940814000277896,845,4095,4095
0.4621061030011333,801,4095,4095
0.4647934010026802,1705,4095,4095
0.4674811140030215,1535,3307,3487
0.47016770300251665,2331,4095,4095
0.4728580420014623,2158,4095,4095
0.4755547140011913,2120,3315,3094
0.4782457190012792,1989,1236,2737
0.4809343080014514,2274,4095,4095
0.48362448000261793,2432,4095,4095
0.4863152780017117,2447,4095,4095
0.48900240800139727,2465,4095,4095
0.4916944130018237,2479,4095,4095
0.49438625200127717,2055,4095,3862
0.4970748410014494,2598,4095,4095
0.49976413800322916,2201,4095,4095
0.5024524770014978,2278,4095,4095
0.5051405240010354,2426,4095,4095
0.5078289460034284,1904,709,2678
0.5105206600019301,2471,4095,4095
0.5132104570002411,2099,4095,4095
0.5158993790028035,2087,2739,3301
0.5185903010024049,1935,2796,3170
0.5212775570034864,2227,4095,4095
0.5239662290005072,2416,4095,4095
0.5266550260021177,2445,4095,4095
0.5293425310010207,2466,4095,4095
0.5320324540007277,2449,4095,4095
0.5347218760034593,2064,4095,4095
0.5374105890005012,2559,4095,4095
0.540098345001752,2269,4095,4095
0.5427924750001694,2413,4095,4095
0.545484023001336,2427,4095,4095
0.5481801530004304,1904,3051,3328
0.5508702420011105,2475,4095,4095
0.5535589970022556,2097,4095,4095
0.5562539610000385,2613,4095,4095
0.5589495910026017,1920,4095,3503
0.5616382220032392,2320,4095,4085
0.5643308110011276,2417,4095,4095
0.5670256080011313,2446,4095,4095
0.5697125720034819,2465,4095,4095
0.5724097020029149,2240,4095,4095
0.5750985410013527,2627,4095,4095
0.5777875880012289,1982,1873,2669
0.5804782180020993,2239,4095,4095
0.5831690570012142,2413,4095,4095
0.5858619790014927,2411,4095,4095
0.5885726100023021,1904,4095,4095
0.591266199000529,2477,4095,4095
0.593959496000025,2030,4095,3575
0.5966574180019961,2640,4095,4095
0.5993571320032061,1911,4095,3739
0.6020506370005023,1866,3445,3450
0.6047410589999345,2414,4095,4095
0.6074340650011436,2439,4095,4095
0.6101231950015062,2461,4095,4095
0.6128120339999441,1950,4095,3872
0.6155007060006028,2368,4095,4095
0.6181893370012403,1961,454,2559
0.6208769670010952,2167,4095,4095
0.6235650560010981,2403,4095,4095
0.6262578530004248,2431,4095,4095
0.6289719000014884,2389,4095,4095
0.6316696140020213,2475,4095,4095
0.6343656610006292,2053,4095,3424
0.6370571250008652,2514,4095,4095
0.6397466300004453,0,4095,4095
0.6424370940003428,0,4095,4095
0.6451626410016615,425,4095,4095
0.6478534380003111,0,359,2470
0.6505466940034239,428,4095,4095
0.6532336160016712,0,4095,3570
0.6559202880016528,0,2462,3137
0.658614085001318,0,2605,3108
0.6612998820019129,243,4095,4095
0.6639936800020223,432,4095,4095
0.6666820180034847,427,4095,4095
0.6693696900001669,431,4095,4095
0.6720596540035331,306,4095,4095
0.6747454930009553,0,4095,3231
0.6774312070010637,430,4095,4095
0.680119796001236,64,4095,4095
0.6828103430016199,358,4095,4095
0.6854975150017708,380,4095,4095
0.6881844790004834,0,2153,3079
0.6908778590004658,432,4095,4095
0.6935706560034305,0,4095,3637
0.6962614950025454,0,4095,4095
0.6989497090035002,0,3251,3265
0.7016422140004579,386,4095,4095
0.7043339700030629,425,4095,4095
0.7070241830006125,427,4095,4095
0.7097120640028152,431,4095,4095
0.7124000280018663,0,4095,3646
0.715088700002525,0,4095,4095
0.7177748720023374,0,2407,2847
0.7204631690001406,0,4095,4095
0.7231523410009686,407,4095,4095
0.7258402630031924,148,4095,4095
0.7285730190014874,0,3288,3337
0.7312689410027815,427,4095,4095
0.7339610710005218,0,3792,3113
0.7366507850019843,423,4095,4095
0.7393388740019873,0,4095,3515
0.7420307130014407,0,2380,3068
0.7447210099999211,423,4095,4095
0.7474115150034777,432,4095,4095
0.750101021003502,415,4095,4095
0.7527863600007549,0,3426,3254
0.7554742820029787,241,4095,4095
0.7581701210001484,0,171,2425
0.7608565840018855,0,4095,4095
0.7635452560025442,427,4095,4095
0.7662395120023575,427,4095,4095
0.768927392000478,0,4095,4095
0.7716144390033151,431,4095,4095
0.7743019030021969,0,3330,2955
0.7769884500012267,429,4095,4095
0.7796757060023083,0,4095,3566
0.782364086000598,0,4095,3698
0.7850512170007278,426,4095,4095
0.7877401390032901,0,2544,2801
0.7904271860024892,430,4095,4095
0.7931176910024078,0,3715,3334
0.7958076970026013,0,2613,2943
0.7984987859999819,0,1452,2777
0.801193041002989,39,4095,4095
0.8038833800019347,427,4095,4095
0.806571677003376,429,4095,4095
0.8092574740003329,357,4095,4095
0.8119458550027048,326,4095,4095
0.8146339020022424,0,3728,3004
0.8173217410003417,432,4095,4095
0.8200098710003658,29,4095,4095
0.8226977100021031,129,4095,4095
0.8253845490035019,426,4095,4095
0.8280716370027221,0,631,2640
0.8307623090004199,431,4095,4095
0.8334510650020093,0,3983,3376
0.836138362003112,0,3201,3472
0.8388306590022694,0,2880,3184
0.8415217480032879,193,4095,4095
0.8442130870025721,432,4095,4095
0.846937592003087,433,4095,4095
0.8496274310018634,435,4095,4095
0.8523176450034953,128,4095,4095
0.8550045670017425,0,4095,4095
0.8576960720019997,810,4095,4095
0.8603862449999724,1259,4095,4095
0.8630799580023449,1979,4095,4095
0.8657729220030888,2283,4095,4095
0.8684617610015266,1943,3377,3461
0.8711478080003872,2547,4095,4095
0.8738338130024204,2077,4095,3626
0.8765583610002068,2672,4095,4095
0.8792464910002309,1931,4095,3583
0.8819582050018653,1862,2559,3028
0.8846467940020375,2398,4095,4095
0.8873349660025269,2431,4095,4095
0.8900248050013033,2452,4095,4095
0.8927188100024068,1931,4095,3574
0.8954121490023681,2635,4095,4095
0.8981029040005524,1984,634,2470
0.9007914100002381,2219,4095,4095
0.9034790400000929,2402,4095,4095
0.9061687540015555,2429,4095,4095
0.9088562180004374,2102,4095,4095
0.9115449320015614,2475,4095,4095
0.9142331040020508,2053,4095,3371
0.9169198590025189,2642,4095,4095
0.9196086560004915,1913,4095,4095
0.9222981200000504,1871,4095,3610
0.9249865840029088,2419,4095,4095
0.9276791310003318,2326,4095,4048
0.9303689700027462,2473,4095,4095
0.933056600002601,1968,4095,3686
0.9357465220018639,2141,4095,3978
0.9384341940021841,1969,859,2672
0.9411334500000521,2222,4095,4095
0.9438263300035032,2412,4095,4095
0.9465177110032528,2431,4095,4095
0.9492050080007175,2423,4095,4095
0.9518925550000858,2480,4095,4095
0.9545819360027963,2070,4095,3351
0.9572762740026519,2623,4095,4095
0.9599762800025928,2096,4095,4095
0.9626673270031461,2032,4095,4095
0.9653790410011425,2421,4095,4095
0.9680813380000473,1910,311,2547
0.9707689270035189,2475,4095,4095
0.9734565570033737,2001,4095,3617
0.976144854001177,2106,2481,3174
0.978833860001032,1949,2640,3129
0.9815215740018175,2193,4095,4095
0.9842110790013976,2413,4095,4095
0.9869003760031774,2441,4095,4095
0.9895912570027576,2469,4095,4095
0.9922883040017041,2349,4095,4095
0.9949796420005441,2085,4095,3376
0.9976667310002085,2559,4095,4095
1.0003561530029401,2186,4095,4095
1.003098242003034,2409,4095,4095
1.0058138310014328,2432,4095,4095
1.0085405450008693,1917,3120,3351
1.0112334670011478,2491,4095,4095
1.0139492230009637,2031,4095,3776
1.0166394780026167,2622,4095,4095
1.0193306090004626,961,4095,3437
1.0220220720002544,842,2593,3082
1.0247122030013998,1671,4095,4095
1.0274020420001762,2029,4095,4095
1.0300925050032674,2297,4095,4095
1.0327798860016628,1917,4095,3741
1.0354676410024695,2701,4095,4095
1.038157647002663,2027,955,2507
1.040844527000445,2192,4095,4095
1.043535533000977,2431,4095,4095
1.0462258300030953,2446,4095,4095
1.048939127002086,2111,4095,4095
1.051632132002851,2481,4095,4095
1.0543252210009086,2053,4095,3472
1.0570158520022233,2651,4095,4095
1.0597101490020577,1918,4095,4095
1.0624026960031188,1872,4095,3654
1.065091451000626,2425,4095,4095
1.0678042490035295,2304,4095,3973
1.0705233790031343,2471,4095,4095
1.0732145510010014,1979,4095,3724
1.0759037230018293,2107,3441,3151
1.0785916450004152,1968,1180,2747
1.0812795260026178,2193,4095,4095
1.0839696150032978,2416,4095,4095
1.0866671620024135,2441,4095,4095
1.089358251003432,2448,4095,4095
1.0920522560008976,2481,4095,4095
1.0947418450014084,2075,4095,3301
1.0974319340020884,2586,4095,4095
1.100122439002007,2068,4095,4095
1.1028106110024964,2125,4095,4095
1.1054969920005533,2430,4095,4095
1.1081854550029675,1910,407,2605
1.1108749610029918,2480,4095,4095
1.1135618410007737,2002,4095,3600
1.1162523470011365,2109,2639,3234
1.1189427270001033,1955,2661,3152
1.1216322330001276,2215,4095,4095
1.1243201960023725,2421,4095,4095
1.1270087440025236,2445,4095,4095
1.1296954160025052,2469,4095,4095
1.1323838790012815,2355,4095,4095
1.1350736770000367,2090,4095,3395
1.137761224003043,2592,4095,4095
1.1404491880020942,2224,4095,4095
1.1431417350031552,2412,4095,4095
1.1458298650031793,2431,4095,4095
1.1485529120000137,1919,2644,3216
1.1512445010012016,2479,4095,4095
1.1539591730033862,2031,4095,3828
1.1566473450002377,2559,4095,4095
1.159343434002949,1936,4095,3499
1.1620311480000964,1871,3797,3738
1.1647188200004166,2419,4095,4095
1.1674107840008219,2450,4095,4095
1.1701026230002753,2473,4095,4095
1.172790086002351,2112,4095,4095
1.1754764670004079,2663,4095,4095
1.178162306001468,2002,1702,2677
1.180848853000498,2247,4095,4095
1.1835373170033563,2416,4095,4095
1.1862261140013288,2435,4095,4095
1.1889150360002532,1919,4095,4095
1.1916049999999814,2485,4095,4095
1.1942954220030515,2055,4095,3719
1.1970712610018381,2657,4095,4095
1.1998155159999442,1921,4095,4095
1.2025110220019997,1890,4095,3801
1.2052032770006917,2634,4095,4095
1.207894491002662,2836,4095,3810
1.2105851210035325,3809,4095,4095
1.213285502002691,3517,4095,3851
1.21598034100316,4031,3362,3127
1.2186735130017041,3152,1100,2736
1.221362810003484,3011,4095,4095
1.2240607740022824,2707,4095,4095
1.2267605710003409,2485,4095,4095
1.2294511600011901,2406,4095,4095
1.232143248002103,2422,4095,4095
1.2348347540028044,2029,4095,3433
1.2375329680035065,2588,4095,4095
1.2402639320025628,2103,4095,4095
1.2429668950026098,2237,4095,4095
1.2456654430025083,2427,4095,4095
1.2483898650025367,1917,875,2738
1.2510967040034302,2483,4095,4095
1.253794417003519,2017,4095,3765
1.2564840900013223,2109,4095,4095
1.2591904700020677,1947,3259,3266
1.2619275170000037,2419,4095,4095
1.2646215640015726,2416,4095,4095
1.2673142780004127,2447,4095,4095
1.2700092420018336,2476,4095,4095
1.2727005390006525,2248,4095,4095
1.2753875860034896,2340,4095,4095
1.2780770080025832,2013,3301,3121
1.280766764000873,2251,4095,4095
1.283464478001406,2414,4095,4095
1.2861551500027417,2435,4095,4095
1.2888441550021525,1921,4095,4095
1.2915324519999558,2480,4095,4095
1.2942246660022647,2042,4095,3810
1.2969135050007026,2672,4095,4095
1.2996038440032862,1929,4095,3699
1.3022935160006455,1879,2601,3214
1.3049812710014521,2423,4095,4095
1.307669068002724,2448,4095,4095
1.3103587820005487,2479,4095,4095
1.3130473290002556,1923,4095,3749
1.3157429180027975,2672,4095,4095
1.3184330070034775,1991,305,2432
1.3211204710023594,2238,4095,4095
1.3238088090001838,2413,4095,4095
1.3264988150003774,2441,4095,4095
1.329187195002305,2290,4095,4095
1.3318784510011028,2482,4095,4095
1.3345675810014654,2065,4095,3543
1.3372539620031603,2650,4095,4095
1.3399427590011328,1955,4095,4095
1.3426363890030188,1873,4095,3937
1.3453258110021125,2431,4095,4095
1.348017817002983,1909,3397,3009
1.35070636400269,2480,4095,4095
1.3533929110017198,1984,4095,3774
1.3560820830025477,2109,3374,3138
1.358771297000203,1971,1351,2789
1.3614802190022601,2233,4095,4095
1.3641718910002965,2416,4095,4095
1.3668632300032186,2447,4095,4095
1.3695519020002394,2461,4095,4095
1.3722469490021467,2494,4095,4095
1.3749348300007114,2076,4095,3317
1.3776212520024274,2623,4095,4095
1.380315882001014,2146,4095,4095
1.383008721000806,2235,4095,4095
1.3856991850007034,2439,4095,4095
1.3883887740012142,1920,642,2646
1.391078529002698,2479,4095,4095
1.3937678260008397,2005,4095,3659
1.3964581650034233,2080,2839,3349
1.399147129002813,976,2871,3107
1.4018370090016106,1086,4095,4095
1.4045710150021478,1557,4095,4095
1.4072656870011997,1951,4095,4095
1.409965151000506,2259,4095,4095
1.4126537810006994,2256,4095,4095
1.4153438700013794,2115,4095,4095
1.4180370419999235,2531,4095,4095
1.420724298001005,2293,4095,4095
1.4234149280018755,2434,4095,4095
1.426104017002217,2448,4095,4095
1.4287925220014586,1922,3475,3433
1.4314828610004042,2485,4095,4095
1.4341717830029665,2033,4095,3794
1.4368641220025893,2682,4095,4095
1.4395579190022545,1940,4095,3581
1.4422488000018348,1875,3061,3115
1.4449391800008016,2423,4095,4095
1.4476304360032373,2450,4095,4095
1.450320941003156,2478,4095,4095
1.453053863002424,1958,4095,4095
1.4557468270031677,2672,4095,4095
1.4584417490004853,1997,725,2479
1.461139880000701,2239,4095,4095
1.4638314680014446,2416,4095,4095
1.4665212660001998,2442,4095,4095
1.46921168800327,2146,4095,4095
1.4719059850031044,2486,4095,4095
1.4745968650022405,2058,4095,3492
1.477284871001757,2657,4095,4095
1.4799783760026912,1923,4095,4095
1.4826660070029902,1872,4095,3739
1.485353012001724,2425,4095,4095
1.4880409340003098,2318,4095,4073
1.4907314400006726,2480,4095,4095
1.4934198620030656,1978,4095,3774
1.4961093260026246,2282,4095,3897
1.4987986640007875,1975,1011,2722
1.5014905860007275,2235,4095,4095
1.5041811340015556,2419,4095,4095
1.5068711810017703,2443,4095,4095
1.509560019003402,2427,4095,4095
1.5122496080002747,2491,4095,4095
1.5149390300030063,2074,4095,3372
1.5176267440001538,2634,4095,4095
1.5203159160009818,2148,4095,4095
1.5230048380035441,2067,4095,4095
1.5256937610029127,2432,4095,4095
1.5283822240016889,1914,305,2491
1.5310705210031301,2483,4095,4095
1.5337603600019065,2003,4095,3628
1.5364505740035383,2110,2389,3126
1.539140621000115,1963,2463,3067
1.5418227100017248,2211,4095,4095
1.5445345070002077,2420,4095,4095
1.547204762002366,2448,4095,4095
1.549869476002641,2477,4095,4095
1.552594107000914,2391,4095,4095
1.5552851960019325,2089,4095,3367
1.5579748260024644,2599,4095,4095
1.5606839980027871,2211,4095,4095
1.5633760870005062,2416,4095,4095
1.5660653010017995,2435,4095,4095
1.5687534310018236,1919,2496,3177
1.5714420620024612,2481,4095,4095
1.5741336090031837,2029,4095,3824
1.5768202810031653,2412,4095,4095
1.579506953003147,1942,3979,3472
1.582196125000337,2407,4095,4095
1.5848847560009744,2559,4095,4095
1.587579386003199,3089,4095,4095
1.5902674330027367,3655,4095,4095
1.5929602300020633,3495,4095,4095
1.595655027002067,4095,4095,4095
1.5983468250014994,3291,2373,2815
1.6010375380028563,3056,4095,4095
1.6037365850024798,2775,4095,4095
1.6064284240019333,2432,4095,4095
1.6091205130032904,1887,4095,4095
1.6118121020008402,2427,4095,4095
1.6145023990029586,2001,4095,3568
1.6171918630025175,2638,4095,4095
1.6198825770006806,1915,4095,3730
1.6225710819999222,1872,3046,3317
1.625258712003415,2423,4095,4095
1.6279464260005625,2454,4095,4095
1.630634765002469,2480,4095,4095
1.6333207290008431,1965,4095,3649
1.6360110680034268,2621,4095,4095
1.6386999060014205,1991,159,2461
1.6413864950009156,2265,4095,4095
1.6440790420019766,2417,4095,4095
1.6467731730008381,2446,4095,4095
1.6494652620021952,2331,4095,4095
1.65215793400057,2487,4095,4095
1.6548826890029886,2067,4095,3384
1.6575748610011942,2652,4095,4095
1.660268283001642,1966,4095,4095
1.6629645810025977,1874,4095,4095
1.665653044001374,2423,4095,4095
1.668340967000404,1918,1670,2613
1.6710276390003855,2480,4095,4095
1.6737210610008333,1994,4095,3651
1.6764120660009212,2112,2496,3071
1.6790990720000991,1966,1905,2959
1.681787327001075,2224,4095,4095
1.684478333001607,2417,4095,4095
1.6871681299999182,2447,4095,4095
1.6898553850005555,2471,4095,4095
1.6925947660020029,2438,4095,4095
1.695288271002937,2090,4095,3330
1.697977568001079,2608,4095,4095
1.7006657820020337,2196,4095,4095
1.7033546630009369,2335,4095,4095
1.7060436680003477,2433,4095,4095
1.7087311730028887,1917,1601,2943
1.7114219710019825,2486,4095,4095
1.714114893002261,2026,4095,3728
1.71680652300347,2114,4095,4095
1.719496945002902,1950,3391,3319
1.7221863670019957,2418,4095,4095
1.7248742890005815,2416,4095,4095
1.7275634200013883,2408,4095,4095
1.7302528840009472,2477,4095,4095
1.7329397640023672,2242,4095,4095
1.7356492700018862,2100,4095,4095
1.7383504000026733,2023,4095,3830
1.7410409470030572,2249,4095,4095
1.7437356190021092,2415,4095,4095
1.7464279170017107,2435,4095,4095
1.749118214000191,1923,4095,3750
1.7518097610009136,2487,4095,4095
1.754498683003476,2047,4095,3757
1.7571882300035213,2682,4095,4095
1.759877985001367,1931,4095,3692
1.762576949000504,1876,2421,3152
1.7652664550005284,2423,4095,4095
1.7679595020017587,2449,4095,4095
1.7706498820007255,2479,4095,4095
1.7733407630003057,1957,4095,3651
1.7760364770001615,2679,4095,4095
1.778724649000651,1236,253,2413
1.7814119870017748,1133,4095,4095
1.7841006600028777,1489,4095,4095
1.7867891650021193,1875,4095,4095
1.789479212002334,2006,4095,4095
1.7921702590028872,2414,4095,4095
1.7948633480009448,2081,4095,3418
1.7975517700033379,2707,4095,4095
1.800245526002982,1959,4095,4095
1.8029361560002144,1894,4095,3911
1.805624828000873,2434,4095,4095
1.8083137090034143,1918,3116,2957
1.8110049640017678,2479,4095,4095
1.8136957610004174,1982,4095,3637
1.816386558002705,2113,3269,3146
1.819084731003386,1976,1283,2768
1.8217736530023103,2240,4095,4095
1.8244647000028635,2414,4095,4095
1.827157330000773,2429,4095,4095
1.8298464190011146,2459,4095,4095
1.8325805910026247,2491,4095,4095
1.8352804720016138,2095,4095,3357
1.8379741440003272,2627,4095,4095
1.840665108000394,2215,4095,4095
1.8433592380024493,2230,4095,4095
1.846051285003341,2429,4095,4095
1.8487408740002138,1917,957,2772
1.8514331710030092,2481,4095,4095
1.8541229680013203,2019,4095,3650
1.856848057002935,2121,3760,3728
1.8595409790032136,1951,3088,3253
1.8622398600018641,2364,4095,4095
1.864928407001571,2416,4095,4095
1.867621078999946,2448,4095,4095
1.8703102930012392,2475,4095,4095
1.8730010480030614,2287,4095,4095
1.8756949700000405,2103,4095,4095
1.8783855180008686,2147,4095,3961
1.8810734400030924,2214,4095,4095
1.8837615700031165,2410,4095,4095
1.8864518260015757,2433,4095,4095
1.889139539001917,1920,3856,3520
1.891835753001942,2485,4095,4095
1.8945277170023473,2046,4095,3781
1.8972173890033446,2689,4095,4095
1.8999079780005559,1936,4095,3637
1.902597483000136,1875,2423,3089
1.905289280002762,2425,4095,4095
1.9079801610023424,2457,4095,4095
1.9106708750005055,2479,4095,4095
1.9133575050000218,1954,4095,3786
1.9160470940005325,2685,4095,4095
1.918736349001847,1990,739,2464
1.9214239380016807,2248,4095,4095
1.9241125270018529,2401,4095,4095
1.926804782000545,2431,4095,4095
1.9294936210026208,2070,4095,4095
1.9321836680028355,2484,4095,4095
1.9348748820011679,2078,4095,3606
1.9375643880011921,2681,4095,4095
1.9402567260003707,1920,4095,4095
1.9429487730012625,1869,4095,3659
1.9456474870021339,2417,4095,4095
1.948338826001418,2259,4095,3925
1.9510289980025846,2480,4095,4095
1.9537176700032433,1984,4095,3705
1.9564073420006025,2182,3849,3846
1.9590970980025304,1982,1008,2687
1.9617888950015185,2247,4095,4095
1.9644830670004012,2559,4095,4095
1.9671736140007852,3255,4095,4095
1.969864120001148,3938,4095,4095
1.972590792000119,4095,4095,4095
1.9752948810019006,4095,4095,3414
1.9779872200015234,4095,4095,4095
1.980677100000321,3313,4095,4095
1.9833703140029684,2754,4095,4095
1.9860658190009417,2603,4095,4095
1.9887534080007754,1901,473,2623
1.991442538001138,2411,4095,4095
1.994134919001226,1957,4095,3687
1.996839091003494,2094,2819,3315
1.9995359720014676,1936,2786,3169
2.002231477003079,2222,4095,4095
2.0049744410025596,2415,4095,4095
2.0076941960032855,2448,4095,4095
2.010387285001343,2477,4095,4095
2.0130765410031017,2275,4095,4095
2.0157678380019206,2112,4095,4095
2.0184580929999356,2389,4095,4095
2.021146432001842,2259,4095,4095
2.023835146002966,2402,4095,4095
2.026533776002907,2418,4095,4095
2.029222823002783,1918,3795,3537
2.031913621001877,2482,4095,4095
2.034605251003086,2058,4095,3791
2.0372946730021795,2698,4095,4095
2.0399846370019077,1936,4095,3663
2.0426748919999227,1865,2738,3104
2.0453647730028024,2416,4095,4095
2.0480570280014945,2449,4095,4095
2.0507503670014557,2466,4095,4095
2.0534391640030663,1951,4095,3779
2.056134711001505,2702,4095,4095
2.0588523840015114,2004,722,2464
2.0615435970030376,2253,4095,4095
2.0642390610009898,2406,4095,4095
2.0669297330023255,2438,4095,4095
2.070826783001394,2209,4095,4095
2.0735327470029006,2493,4095,4095
2.07624279400261,2700,4095,4095
2.078962549003336,1999,253,2429
2.081663846001902,2242,4095,4095
2.0843546020005306,2407,4095,4095
2.0870446490007453,2434,4095,4095
2.0897332380009175,2337,4095,4095
2.0924239520027186,2493,4095,4095
2.0951164570033143,2085,4095,3408
2.0978067540017946,2672,4095,4095
2.100498593001248,1982,4095,4095
2.1031907230026263,1867,4095,4095
2.1059091040006024,2421,4095,4095
2.1085998180024035,1911,2415,2756
2.1112915730009263,2480,4095,4095
2.113984329000232,2001,4095,3740
2.1166710010002134,2131,2541,3019
2.1193717980022484,1968,1840,2915
2.1220653030031826,2224,4095,4095
2.1247540170006687,2408,4095,4095
2.1274436060011794,2441,4095,4095
2.1301321950013516,2477,4095,4095
2.1328193670015025,2445,4095,4095
2.13550720600324,2107,4095,3333
2.1381957110024814,2633,4095,4095
2.1408819670032244,2176,4095,4095
2.1435711800004356,2277,4095,4095
2.1462616020035057,2427,4095,4095
2.1489485660022183,1919,1087,2775
2.1516379470012907,2484,4095,4095
2.1543255770011456,2032,4095,3664
2.1570119580028404,2117,4095,3801
2.1597006710035203,1039,3236,3195
2.162391302001197,1218,4095,4095
2.1650825160031673,1638,4095,4095
2.1677749790032976,2001,4095,4095
2.170463610000297,2288,4095,4095
2.1731508240009134,2287,4095,4095
2.1758407460001763,2143,4095,4095
2.178549585001747,2496,4095,4095
2.181238673001644,2277,4095,4095
2.183929179002007,2417,4095,4095
2.1866249760023493,2438,4095,4095
2.1893116900027962,1920,3729,3497
2.1919993620031164,2485,4095,4095
2.1946910340011527,2062,4095,3755
2.197379623001325,2713,4095,4095
2.200069753002026,1935,4095,3579
2.2027572590013733,1866,2752,3107
2.2054442220032797,2414,4095,4095
2.2081345610022254,2451,4095,4095
2.2108276080034557,2480,4095,4095
2.2135187390013016,1951,4095,3750
2.2162091190002684,2706,4095,4095
2.2188988750021963,2007,1011,2512
2.2215883390017552,2250,4095,4095
2.224278427001991,2405,4095,4095
2.226967766000598,2407,4095,4095
2.229657063002378,2022,4095,4095
2.2323464440014504,2491,4095,4095
2.2350362410033995,2089,4095,3455
2.237723205002112,2694,4095,4095
2.240411752001819,1919,4095,4095
2.243101382002351,1858,4095,3679
2.245790721000958,2416,4095,4095
2.2484798510013206,2448,4095,4095
2.2511691070030793,2479,4095,4095
2.253855446000671,1984,4095,3698
2.256579076001799,2512,4095,4095
2.259313832000771,1979,814,2689
2.262005629003397,2194,4095,4095
2.264700134001032,2402,4095,4095
2.2673927230025583,2437,4095,4095
2.270082145001652,2432,4095,4095
2.2727704839999205,2496,4095,4095
2.2754605730006006,2109,4095,3306
2.2781498700023803,2654,4095,4095
2.280840959003399,2109,4095,4095
2.2837765060030506,2075,4095,4095
2.2864656370002194,2423,4095,4095
2.2891508510001586,1917,1872,3021
2.2918403140029113,2485,4095,4095
2.2945344030013075,2046,4095,3735
2.2972224920013105,2145,4095,4095
2.2999114560007,1942,3661,3377
2.3026000860008935,2401,4095,4095
2.3052885920005792,2413,4095,4095
2.3079795140001806,2446,4095,4095
2.310667811001622,2471,4095,4095
2.313356566002767,2127,4095,4095
2.316044988001522,2325,4095,4095
2.318736702000024,2029,3207,3098
2.3214253740006825,2224,4095,4095
2.324117088002822,2397,4095,4095
2.3268159690014727,2418,4095,4095
2.3295045160011796,1922,4095,3764
2.3321941460017115,2489,4095,4095
2.3348822770021798,2068,4095,3632
2.3375729900035367,2713,4095,4095
2.340264038000896,1926,4095,3775
2.3429530850007723,1915,2432,3175
2.3456498400009878,2832,4095,4095
2.3483390960027464,3791,4095,4095
2.351027893000719,4095,4095,4095
2.3537144400033867,4095,4095,3621
2.3564043200021842,4095,4095,4095
2.3590916590001143,4095,273,2431
2.3617776230021263,3715,4095,4095
2.364472253000713,3341,4095,4095
2.3671631750003144,2703,4095,4095
2.369850931001565,2298,4095,4095
2.372572228003264,2426,4095,4095
2.375264234000497,2027,4095,3349
2.377956697000627,2625,4095,4095
2.380648703001498,1879,4095,4095
2.3833416670022416,1843,4095,4095
2.3860334220007644,2415,4095,4095
2.388720553000894,1914,2645,2850
2.3914070160026313,2480,4095,4095
2.3940953550009,2000,4095,3626
2.3967818609999085,2146,2699,3050
2.399472033001075,1970,1475,2820
2.402163496000867,2201,4095,4095
2.4048510440006794,2400,4095,4095
2.4075408410026284,2435,4095,4095
2.4102280130027793,2462,4095,4095
2.4129151020024437,2466,4095,4095
2.4156039820009028,2112,4095,3327
2.418295946001308,2644,4095,4095
2.4209824100034893,2147,4095,4095
2.423672165001335,2223,4095,4095
2.426359629000217,2441,4095,4095
2.4290458430004946,1920,448,2621
2.4317342650028877,2486,4095,4095
2.4344230620008602,2029,4095,3519
2.4371104840029147,2143,3003,3343
2.4397981980000623,1951,2950,3186
2.4424882030034496,2163,4095,4095
2.4451767090031353,2403,4095,4095
2.447865964000812,2434,4095,4095
2.4505548030028876,2468,4095,4095
2.4532427250014734,2309,4095,4095
2.455933981000271,2122,4095,3328
2.458624528000655,2609,4095,4095
2.4613487830029044,2208,4095,4095
2.4640485390009417,2394,4095,4095
2.4667413360002683,2416,4095,4095
2.469428465999954,1918,3008,3344
2.472117472003447,2492,4095,4095
2.474806060003175,2064,4095,3745
2.4774921080024797,2634,4095,4095
2.480196905002231,1933,4095,3523
2.482884119002847,1913,3307,3668
2.485569916003442,2413,4095,4095
2.4882578380020277,2448,4095,4095
2.490944760000275,2479,4095,4095
2.4936314320002566,1955,4095,3690
2.4963198540026497,2656,4095,4095
2.499009693001426,2013,1679,2650
2.5016968230011116,2227,4095,4095
2.5043847870001628,2398,4095,4095
2.507071668002027,2387,4095,4095
2.5097587980017124,1920,4095,4095
2.512449595000362,2491,4095,4095
2.515139058999921,2083,4095,3411
2.517825356000685,2701,4095,4095
2.5205504870027653,1919,4095,3718
2.5232412420009496,1856,3728,3499
2.5259557890021824,2416,4095,4095
2.528645961003349,2453,4095,4095
2.5313349250027386,2480,4095,4095
2.5340242640013457,1985,4095,3583
2.5367106860030617,2528,4095,4095
2.5393996500024514,1184,610,2594
2.542087822002941,1163,4095,4095
2.5447782860028383,1586,4095,4095
2.547468000000663,1943,4095,4095
2.5501568380022945,2180,4095,4095
2.552843594003207,2437,4095,4095
2.555534974002512,2118,4095,3296
2.558223063002515,2705,4095,4095
2.560912360000657,2057,4095,4095
2.5636017820033885,1877,4095,4095
2.566300496000622,2433,4095,4095
2.5689884180028457,1919,704,2455
2.5716764650023833,2486,4095,4095
2.574365096003021,2016,4095,3530
2.577051518001099,2146,2362,3082
2.5797405230005097,1943,2239,3037
2.582442445000197,2115,4095,4095
2.585130076000496,2409,4095,4095
2.587817123003333,2445,4095,4095
2.5905042120029975,2479,4095,4095
2.59319038400281,2383,4095,4095
2.5958803890025592,2121,4095,3205
2.598570145000849,2626,4095,4095
2.6012563170006615,2179,4095,4095
2.603944031001447,2299,4095,4095
2.6066344950013445,2429,4095,4095
2.6093198330017913,1919,1712,2975
2.612021964003361,2487,4095,4095
2.61470901100256,2046,4095,3546
2.6173956830025418,2147,4095,4095
2.6200837300020794,1943,3532,3330
2.6227712360014266,2403,4095,4095
2.6254599080020853,2409,4095,4095
2.6281924130016705,2447,4095,4095
2.6308911690030072,2480,4095,4095
2.633586299001763,1977,4095,4095
2.6362787630023377,2222,4095,4095
2.6389701850021083,2023,2919,2992
2.641658691001794,2191,4095,4095
2.64434936300313,2394,4095,4095
2.647042076001526,2361,4095,4095
2.64973158200155,1918,4095,3974
2.6524211290015955,2486,4095,4095
2.655111426000076,2079,4095,3472
2.6578012650024903,2708,4095,4095
2.66049206200114,1921,4095,3662
2.663220401002036,1859,2688,3217
2.6659436560003087,2411,4095,4095
2.6686360370003968,2451,4095,4095
2.671328459000506,2479,4095,4095
2.6740194230005727,1973,4095,3536
2.6767085530009354,2619,4095,4095
2.6793977250017633,1989,304,2507
2.6820986890015774,2174,4095,4095
2.6847872360012843,2401,4095,4095
2.6874755330027256,2442,4095,4095
2.6901675810004235,2365,4095,4095
2.6928569190022245,2493,4095,4095
2.6955585080031597,2103,4095,3285
2.6982504300030996,2667,4095,4095
2.700937936002447,1939,4095,4095
2.7055715280002914,1856,4095,4095
2.708269201000803,2446,4095,4095
2.710963373003324,2475,4095,4095
2.713653045000683,1945,4095,4095
2.71634455000094,2344,4095,4095
2.7190353060032066,2019,2405,2861
2.721727728003316,2127,4095,4095
2.724420483002177,2593,4095,4095
2.7271118220014614,3316,4095,4095
2.7298007440003857,3504,4095,4095
2.732490083002631,4095,4095,4095
2.7351805890029937,4095,4095,3445
2.7378699270011566,4095,4095,4095
2.7405921410027076,3718,4095,3701
2.743281688002753,2873,2801,3259
2.7459881940012565,3046,4095,4095
2.7486775740035227,2609,4095,4095
2.7513683710021724,2454,4095,4095
2.7540616690021125,1907,4095,3479
2.756751382003131,2522,4095,4095
2.759441763002542,1947,208,2497
2.7621315180003876,2107,4095,4095
2.7648213150023366,2391,4095,4095
2.7675224040031026,2432,4095,4095
2.770213785002852,2351,4095,4095
2.7729015400000208,2493,4095,4095
2.7755929210034083,2105,4075,3257
2.7782827180017193,2672,4095,4095
2.7809693060007703,1904,4095,4095
2.7836638120024872,1854,4095,4095
2.78635615100211,2419,4095,4095
2.789043364002282,1908,1409,2559
2.7917305780028983,2480,4095,4095
2.7944182500032184,2009,4095,3417
2.797108089001995,2150,2660,3029
2.7998106780032685,1967,1890,2922
2.8024997250031447,2043,4095,4095
2.8051878140031477,2398,4095,4095
2.8078792360029183,2435,4095,4095
2.8105702410030062,2473,4095,4095
2.813259539001592,2369,4095,4095
2.8159494190003898,2117,4095,3103
2.8186420490019373,2615,4095,4095
2.821333180003421,2032,4095,4095
2.8240210190015205,2258,4095,4095
2.8267115660019044,2416,4095,4095
2.82939928000269,1915,1216,2833
2.832088327002566,2481,4095,4095
2.8347784990000946,2042,3926,3408
2.837465129003249,2147,4095,4095
2.8401544260013907,1943,3200,3267
2.8428447650003363,2251,4095,4095
2.8455431870024768,2406,4095,4095
2.848234693003178,2449,4095,4095
2.8509268650013837,2480,4095,4095
2.853615454001556,2041,4095,4095
2.856304209002701,2128,4095,4095
2.85899367300226,2249,4095,4053
2.8616830530008883,2131,4095,4095
2.864417142001912,2397,4095,4095
2.867121273000521,2359,4095,4095
2.8698102779999317,1919,4095,3725
2.8725013670009503,2485,4095,4095
2.8751934980027727,2078,4095,3397
2.8779115860015736,2717,4095,4095
2.8806033830005617,1923,4095,3538
2.883297014002892,1857,2490,3166
2.8859863940015202,2407,4095,4095
2.888673233002919,2448,4095,4095
2.891370364002796,2477,4095,4095
2.894057994002651,1967,3979,3421
2.8967513330026122,2631,4095,4095
2.899440463002975,1993,278,2423
2.9021317190017726,2128,4095,4095
2.9048213490023045,2397,4095,4095
2.907512146000954,2429,4095,4095
2.910199569003453,2247,4095,4095
2.91289186600261,2487,4095,4095
2.915583913003502,2096,3929,3170
2.918276585001877,2335,4095,4095
2.9209642990026623,895,4095,4095
2.9236556790019677,897,4095,3917
2.926349351000681,1755,4095,4095
2.9290376900025876,1587,2629,2821
2.9317289460013853,2355,4095,4095
2.9344184930014308,1991,3964,3408
2.9371067060019413,2174,2827,3087
2.939797504001035,2001,1451,2806
2.9424892170027306,2033,4095,4095
2.9451822230003017,2415,4095,4095
2.947875395002484,2444,4095,4095
2.9505672340019373,2437,4095,4095
2.953256323002279,2409,4095,4095
2.95594612000059,2113,3702,3069
2.95863562500017,2640,4095,4095
2.961324672000046,1973,4095,4095
2.964023636002821,2169,4095,4095
2.9667201830015983,2425,4095,4095
2.9694073550017492,1921,764,2704
2.972098444002768,2492,4095,4095
2.97479424100311,2032,3817,3343
2.9774840800018865,2142,3191,3350
2.980174710002757,1949,2866,3168
2.9828647160029504,1931,4095,4095
2.9855578460010292,2429,4095,4095
2.988246685003105,2435,4095,4095
2.9909338990000833,2466,4095,4095
2.9936207790015033,2027,4095,4095
2.996318910001719,2123,4073,2890
2.9990119990034145,2544,4095,4095
3.001700796001387,2027,4095,4095
3.0043923010016442,2397,4095,4095
3.0071320150018437,2353,4095,4095
3.009849062000285,1919,3213,3365
3.0125730680010747,2485,4095,4095
3.015266532001988,2078,4095,3375
3.017959412001801,2721,4095,4095
3.020648418001656,1922,4095,3532
3.023339881001448,1860,2413,3127
3.0260288450008375,2416,4095,4095
3.028716892000375,2450,4095,4095
3.0314055230010126,2480,4095,4095
3.034093736001523,1962,3933,3378
3.0367812840013357,2640,4095,4095
3.039470831001381,2000,511,2448
3.0421614190017863,2113,4095,4095
3.0448492580035236,2400,4095,4095
3.047541847001412,2384,4095,4095
3.0502299780018802,2095,4095,4095
3.0529186080020736,2485,4095,4095
3.0556088630000886,2096,3753,3130
3.058296869003243,2683,4095,4095
3.060983124003542,1913,4095,3663
3.063674130000436,1856,4095,3759
3.066372010001942,2419,4095,4095
3.069059807003214,1968,3751,3691
3.071750979001081,2480,4095,4095
3.0744425270022475,1997,3765,3379
3.0771326150024834,2149,4095,3339
3.079823121002846,1975,1072,2711
3.08251366800323,1963,4095,4095
3.0852131320025364,2401,4095,4095
3.0879186790007225,2437,4095,4095
3.0906144760010648,2416,4095,4095
3.0933025230006024,2432,4095,4095
3.095991904003313,2111,3705,3061
3.0986794920027023,2641,4095,4095
3.101365998001711,1901,4095,4095
3.1040542120026657,2122,4095,4095
3.106746509001823,3149,4095,4095
3.109436598002503,3167,414,2595
3.1121261030020833,4095,4095,4095
3.1148151090019383,4095,3509,3280
3.1175049470002705,4095,2722,3190
3.1201947030021984,3849,2624,3071
3.122885083001165,2943,4095,4095
3.125571922002564,3169,4095,4095
3.1282602610008325,2639,4095,4095
3.130951641000138,2469,4095,4095
3.133641313001135,2039,4095,4095
3.1363322350007365,2058,3761,2826
3.1390234080026858,2547,4095,4095
3.1417098300007638,1948,4095,4095
3.1444010850027553,2350,4095,4095
3.147096507000242,2369,4095,4095
3.149784263001493,1919,2757,3235
3.152473018002638,2491,4095,4095
3.1551616490032757,2064,3894,3392
3.157848571001523,2375,4095,4095
3.160566951002693,1936,3730,3392
3.1632563730017864,2283,4095,4048
3.165968087003421,2416,4095,4095
3.16866475900315,2446,4095,4095
3.1713572650005517,2480,4095,4095
3.174046479001845,1951,4095,3433
3.1767341090017,2521,4095,4095
3.1794233650034585,2005,1696,2659
3.1821134530000563,2003,4095,4095
3.1847995840034855,2403,4095,4095
3.18749113100057,2320,4095,4095
3.19018063600015,1925,4095,4095
3.192867642002966,2490,4095,4095
3.195556939001108,2085,3974,3163
3.198254986000393,2701,4095,4095
3.200944033000269,1917,4095,3702
3.2036347050016047,1861,3184,3373
3.2063248770027712,2416,4095,4095
3.20901138300178,2451,4095,4095
3.2116990970025654,2480,4095,4095
3.214387185002124,1979,3477,3316
3.217074483000033,2539,4095,4095
3.219763821001834,1984,314,2528
3.2224525770034234,1938,4095,4095
3.2251394570012053,2403,4095,4095
3.227828088001843,2416,4095,4095
3.2305163430028188,2334,4095,4095
3.2332053490026738,2490,4095,4095
3.235895021000033,2099,3529,3105
3.2385823180011357,2667,4095,4095
3.2412914900014584,1904,4095,4095
3.2439846620000026,1858,4095,4095
3.2466787510020367,2421,4095,4095
3.2493667980015744,1918,1168,2510
3.252061595001578,2481,4095,4095
3.254764351000631,2013,3525,3301
3.2574823150025622,2143,2531,3122
3.2601804450023337,1958,2059,2958
3.262869950001914,1930,4095,4095
3.2655602480008383,2411,4095,4095
3.268275253001775,2445,4095,4095
3.2709686340022017,2477,4095,4095
3.2736563890030084,2274,4095,4095
3.2763462280017848,2123,3651,3024
3.2790344420027395,2615,4095,4095
3.2817226970000775,1927,4095,4095
3.2844137020001654,2310,4095,4095
3.2871027080000204,2398,4095,4095
3.2897955470034503,1918,2160,3110
3.2924845940033265,2485,4095,4095
3.2951706830026524,2046,3611,3309
3.2978608130033535,2101,4095,4095
3.3005915690009715,1015,3435,3251
3.3032796990009956,1385,4095,4095
3.305971205001697,1707,4095,4095
3.3086569600018265,2058,4095,4095
3.311345132002316,2317,4095,4095
3.3140358040000137,1925,4095,3562
3.3167223100026604,2151,4095,4095
3.3194133980032348,2059,2806,2949
3.3221034040034283,2054,4095,4095
3.324790575999941,2415,4095,4095
3.3274792900010652,2333,4095,4095
3.330169837001449,1922,4095,3866
3.332859467001981,2482,4095,4095
3.335550140000123,2073,3954,3198
3.3382387700003164,2704,4095,4095
3.340927442000975,1921,4095,3583
3.343618114002311,1862,2533,3184
3.34630837000077,2415,4095,4095
3.348997250002867,2453,4095,4095
3.351686589001474,2480,4095,4095
3.354374678001477,1968,3536,3313
3.3570639330027916,2623,4095,4095
3.3597540220034716,1991,192,2439
3.362472944001638,1965,4095,4095
3.365161325000372,2402,4095,4095
3.3678582470020046,2447,4095,4095
3.37055021100241,2297,4095,4095
3.373238508000213,2493,4095,4095
3.3759283050021622,2096,3570,3087
3.3786278100014897,2672,4095,4095
3.3813146490028885,1904,4095,3568
3.384009571000206,1863,4095,4095
3.386704118001944,2417,4095,4095
3.3894002490014827,1913,1923,2654
3.3920902960016974,2480,4095,4095
3.3947791350001353,2003,3670,3322
3.397469348001323,2141,2682,3113
3.4001570620021084,1967,1719,2880
3.4028462760034017,1898,4095,4095
3.4055359060002957,2410,4095,4095
3.4082281200026046,2437,4095,4095
3.4109205010026926,2446,4095,4095
3.413610798001173,2350,4095,4095
3.4163015950034605,2114,3504,3021
3.418992975002766,2625,4095,4095
3.4216806889999134,1904,4095,4095
3.4243698610007414,2141,4095,4095
3.4270654500032833,2427,4095,4095
3.429757622001489,1915,1158,2802
3.4324481280018517,2481,4095,4095
3.435138883000036,2037,3440,3273
3.4378267640022386,2142,3605,3532
3.4405555610028387,1946,3055,3235
3.4432480660034344,1954,4095,4095
3.445966822000628,2409,4095,4095
3.4486582440003986,2448,4095,4095
3.4513501660003385,2480,4095,4095
3.4540410050030914,1948,4095,3637
3.4567311350001546,2126,4095,4095
3.4594210570030555,2090,4095,3881
3.4621121880009014,2021,4095,4095
3.464799277000566,2401,4095,4095
3.4675329070014413,2319,4095,4095
3.4702327040031378,1914,4095,3599
3.4729221680026967,2485,4095,4095
3.4756143400009023,2073,3809,3159
3.478306512002746,2704,4095,4095
3.480996268001036,1923,4095,3566
3.4836869400023716,1904,2501,3152
3.486378320001677,2759,4095,4095
3.4890704930003267,3583,4095,4095
3.491766623003059,4095,4095,4095
3.4944553780005663,4095,3579,3333
3.4971440920016903,4095,4095,4095
3.4998338890000014,3865,245,2429
3.5025238530033675,3049,4095,4095
3.505212817002757,3123,4095,4095
3.5079040310010896,2535,4095,4095
3.510595870000543,2242,4095,4095
3.5132838750032533,2426,4095,4095
3.5159738800030027,2023,3547,3043
3.518664928000362,2619,4095,4095
3.521354975000577,1894,4095,3604
3.5240456880019337,1860,4095,3871
3.526736152001831,2410,4095,4095
3.5294250330007344,1907,2885,2887
3.532115538000653,2477,4095,4095
3.5348063350029406,1996,3541,3311
3.5374950490004267,2135,3011,3120
3.5401848050023546,1965,1419,2774
3.5428767270022945,1901,4095,4095
3.5455652740020014,2406,4095,4095
3.548259571001836,2438,4095,4095
3.550949868000316,2432,4095,4095
3.5536402070029,2401,4095,4095
3.556330962001084,2112,3504,2992
3.559021051001764,2638,4095,4095
3.5617105570017884,1903,4095,4095
3.564400770002976,2149,4095,4095
3.5670918170035293,2427,4095,4095
3.5697871150005085,1918,648,2678
3.572479287002352,2480,4095,4095
3.575170584001171,2030,3376,3247
3.577860256002168,2139,2986,3312
3.5805892610005685,1953,2767,3130
3.583281267001439,1866,4095,4095
3.5859740220003005,2411,4095,4095
3.588679486001638,2441,4095,4095
3.5913837000007334,2477,4095,4095
3.594077831003233,1945,4095,3603
3.596767044000444,2119,4080,2704
3.599462008001865,2448,4095,4095
3.6021518470006413,1978,4095,4095
3.604840061001596,2405,4095,4095
3.6075311080021493,2337,4095,4095
3.6102211970028293,1920,3600,3469
3.6129088690031494,2487,4095,4095
3.6155985410005087,2063,3969,3309
3.618291296003008,2663,4095,4095
3.6209805520011287,1935,4031,3436
3.6236710570010473,1861,2861,3117
3.626360479000141,2414,4095,4095
3.6290489430029993,2448,4095,4095
3.6317374070022197,2481,4095,4095
3.634426954002265,1952,3648,3344
3.637113168002543,2556,4095,4095
3.6398021730019536,2000,1011,2522
3.6424890120033524,1904,4095,4095
3.645175851001113,2409,4095,4095
3.6478788560016255,2314,4095,4095
3.65056836200165,1977,4095,4095
3.6532535340011236,2483,4095,4095
3.655942789002438,2081,3615,3104
3.658634086001257,2676,4095,4095
3.661323259002529,1915,4095,3705
3.664014431000396,1865,3735,3505
3.6667048940034874,2417,4095,4095
3.669402067000192,2375,4095,4095
3.672092322001845,2480,4095,4095
3.674781369001721,1984,3437,3310
3.677469041002041,2403,4095,4095
3.680158797000331,1171,725,2615
3.6828491360029147,845,4095,4095
3.6855371830024524,1610,4095,4095
3.688226146001398,1963,4095,4095
3.6909193600004073,2166,4095,4095
3.6936051570010022,2419,4095,4095
3.696302371001366,2113,3377,3017
3.6989980430007563,2688,4095,4095
3.70168379900133,1936,4095,4095
3.70437067900275,1883,4095,4095
3.707058935000532,2435,4095,4095
3.7097457320014655,1920,399,2477
3.71243498700278,2480,4095,4095
3.7151257840014296,2011,3455,3251
3.717814415002067,2139,2442,3100
3.7205315040009737,1961,2263,3027
3.723221509000723,1870,4095,4095
3.7259370150022733,2413,4095,4095
3.7286251450022974,2445,4095,4095
3.7313150670015602,2476,4095,4095
3.734002948000125,2073,4095,4095
3.736707161002414,2108,3647,2786
3.7394082920000073,2605,4095,4095
3.7421025470030145,1913,4095,4095
3.7447946360007336,2319,4095,4095
3.7474931420001667,2397,4095,4095
3.750183564003237,1919,2624,3213
3.7528716110027744,2483,4095,4095
3.755562533002376,2043,3485,3295
3.758252955001808,2168,4095,4095
3.7609423360008805,1936,3602,3337
3.7636314240007778,2345,4095,4095
3.7663220970025577,2417,4095,4095
3.769014852001419,2449,4095,4095
3.7717109410004923,2477,4095,4095
3.77440173800278,1950,4095,3440
3.77709124300236,2117,4095,4095
3.7797821240019402,2013,2240,2783
3.7824710040003993,1961,4095,4095
3.785159676001058,2405,4095,4095
3.7878518490033457,2273,4095,4095
3.790541396003391,1918,4095,4095
3.7932435260008788,2487,4095,4095
3.7959321570015163,2071,3786,3149
3.798631662000844,2685,4095,4095
3.8013189180019253,1919,4095,3582
3.804007423001167,1868,2999,3327
3.806697053001699,2419,4095,4095
3.8093876840030134,2449,4095,4095
3.8120802310004365,2480,4095,4095
3.81477161100338,1968,3450,3317
3.817461450002156,2556,4095,4095
3.820150706000277,1984,290,2513
3.8228389190007874,1899,4095,4095
3.825527842000156,2407,4095,4095
3.8282217220003076,2435,4095,4095
3.830912643999909,2306,4095,4095
3.833600900001329,2487,4095,4095
3.836291447001713,2095,3391,2995
3.8389803690006374,2640,4095,4095
3.841670374000387,1909,4095,3549
3.8443607130029704,1866,4095,4095
3.847054219000711,2421,4095,4095
3.8497423910012003,1913,1525,2559
3.8524325210019015,2480,4095,4095
3.85512327700053,2000,3499,3298
3.8578121990030922,2133,2641,3109
3.860506371001975,1966,1886,2928
3.863199835002888,1915,4095,4095
3.8659181319999334,2661,4095,4095
3.868645346003177,3415,4095,4095
3.8713449760034564,4095,4095,4095
3.8740376480018313,4095,4095,4095
3.8767268620031246,4095,3474,2973
3.8794184930011397,4095,4095,4095
3.8821078310029407,2979,4095,4095
3.884795837002457,2800,4095,4095
3.887484384002164,2555,4095,4095
3.890174348001892,1902,1872,3018
3.8928741449999507,2414,4095,4095
3.895569817002979,1973,3323,3236
3.8982588640028553,2093,4095,4095
3.900946786001441,1921,3377,3284
3.9036346670000057,2293,4095,4095
3.9063236720030545,2416,4095,4095
3.909011719002592,2447,4095,4095
3.9117024750012206,2479,4095,4095
3.914392147002218,1954,4095,3549
3.917078902002686,2117,4095,4095
3.919766991002689,2016,3349,3114
3.922456330001296,2006,4095,4095
3.9251451270029065,2412,4095,4095
3.9278360070020426,2315,4095,4095
3.930526430001919,1920,4095,3727
3.933214102002239,2486,4095,4095
3.9359037740032363,2063,3901,3209
3.9385931130018434,2692,4095,4095
3.9422899529999995,1934,4095,3518
3.944990542000596,1871,2489,3143
3.9476930890014046,2359,4095,4095
3.9503853030000755,1919,3200,3380
3.9530743499999517,2484,4095,4095
3.955764772003022,2047,3810,3338
3.9584549450009945,2497,4095,4095
3.96114207500068,1935,4037,3407
3.9638316220007255,2197,4095,3895
3.9665226280012575,2417,4095,4095
3.969212050000351,2449,4095,4095
3.971908847001032,2480,4095,4095
3.9745998110010987,1948,4032,3363
3.9772891080028785,2407,4095,4095
3.9799804050016974,2001,1477,2601
3.9826712850008334,1984,4095,4095
3.9853592070030572,2413,4095,4095
3.9880510460025107,2277,4095,4095
3.9907421350035293,1925,4095,4095
3.993437974000699,2487,4095,4095
3.9961408960007248,2071,3664,3118
3.998836985003436,2677,4095,4095
4.001527074000478,1923,4095,3595
4.004218079000566,1868,3442,3474
4.006906668000738,2422,4095,4095
4.009651506999944,2458,4095,4095
4.012370012002066,2480,4095,4095
4.015062893002323,1984,3489,3303
4.017751940002199,2128,3844,3204
4.020441945001949,1976,1052,2688
4.023132117003115,1923,4095,4095
4.025820706003287,2416,4095,4095
4.0285460030027025,2446,4095,4095
4.031237967003108,2406,4095,4095
4.033953389000089,2415,4095,4095
4.03664539500096,2096,3404,3019
4.039337775000604,2631,4095,4095
4.0420271970033355,1904,4095,4095
4.04471670300336,2156,4095,4095
4.04740995800239,2431,4095,4095
4.0501003800018225,1923,655,2646
4.052788428001804,2490,4095,4095
4.055479016002209,2023,3260,3219
4.058169687999907,2110,2985,3273
4.060858777000249,1021,2681,3071
4.063548908001394,817,4095,4095
4.0662401630033855,1636,4095,4095
4.0689587520028,1994,4095,4095
4.071666257001198,2278,4095,4095
4.07435968000209,1907,4095,4095
4.077048268001818,2128,3851,2807
4.079740232002223,2547,4095,4095
4.082431071001338,1967,4095,4095
4.085120368003118,2419,4095,4095
4.087809665001259,2351,4095,4095
4.090499379002722,1919,3269,3408
4.093189718001668,2482,4095,4095
4.095916640002542,2055,3825,3319
4.098642062002909,2624,4095,4095
4.101331609002955,1932,4095,3519
4.104019698002958,1871,2955,3104
4.106709329000296,2421,4095,4095
4.109398876000341,2449,4095,4095
4.112091089002206,2480,4095,4095
4.114781720003521,1958,3814,3344
4.117469309003354,2607,4095,4095
4.120158772002469,1999,763,2470
4.122848902999976,1937,4095,4095
4.125536492003448,2411,4095,4095
4.128226206001273,2337,4095,4095
4.130920628002059,1968,4095,4095
4.133611300003395,2486,4095,4095
4.136301389000437,2075,3669,3132
4.138997477002704,2671,4095,4095
4.141686816001311,1919,4095,3574
4.1443776129999605,1870,4010,3562
4.147068119000323,2427,4095,4095
4.14975908300039,2300,4095,3932
4.152449213001091,2481,4095,4095
4.1551408430023,1984,3501,3297
4.157828557003086,2163,4016,3985
4.16055677100303,1977,867,2669
4.163249902001553,1902,4095,4095
4.165974324001581,2417,4095,4095
4.168663746000675,2442,4095,4095
4.171360043001187,2413,4095,4095
4.174053090002417,2401,4095,4095
4.176741346000199,2096,3344,2987
4.179431893000583,2626,4095,4095
4.182120856003166,1903,4095,4095
4.184807528999954,2139,4095,4095
4.187495742000465,2430,4095,4095
4.190183998001885,1916,624,2659
4.192872003000957,2480,4095,4095
4.195568175000517,2018,3313,3206
4.198257473002741,2128,3011,3267
4.200943520001601,1951,2713,3137
4.203630150001118,1873,4095,4095
4.2063180720033415,2416,4095,4095
4.20900399400125,2448,4095,4095
4.211691541000619,2478,4095,4095
4.2143799220029905,1995,4095,4095
4.217067344001407,2102,3632,2766
4.219769391002046,2595,4095,4095
4.222467730000062,1946,4095,4095
4.22516036000161,2381,4095,4095
4.227852908003115,2383,4095,4095
4.230543330002547,1919,2817,3248
4.233229668003332,2485,4095,4095
4.235919591003039,2041,3734,3307
4.238607929000864,2386,4095,4095
4.241294352003024,1937,3712,3381
4.243983565000235,2339,4095,4095
4.246671487002459,2608,4095,4095
4.2493605760028,3293,4095,4095
4.252051623003354,3871,4095,4095
4.254739004001749,3507,4095,3426
4.25742859300226,4095,4095,4095
4.260118931000761,3385,1998,2711
4.262810312000511,2736,4095,4095
4.265498859000218,2770,4095,4095
4.268187823003245,2368,4095,4095
4.270879453000816,1873,4095,4095
4.2735727920007776,2417,4095,4095
4.276264881002135,2009,3696,3147
4.27898167800231,2638,4095,4095
4.281669474999944,1909,4095,3552
4.284357481003099,1872,3051,3344
4.287050861003081,2425,4095,4095
4.289744158002577,2458,4095,4095
4.292432747002749,2483,4095,4095
4.2951224190001085,1971,3461,3298
4.297815133002587,2529,4095,4095
4.300703805001831,1984,343,2531
4.303394144000777,1905,4095,4095
4.306082191000314,2415,4095,4095
4.308767363003426,2423,4095,4095
4.311469994001527,2422,4095,4095
4.314159666002524,2384,4095,4095
4.316847005000454,2094,3406,3023
4.319536094000796,2624,4095,4095
4.3222275160005665,1905,4095,4095
4.324918146001437,2127,4095,4095
4.3276072350017785,2429,4095,4095
4.3302974900034314,1919,645,2647
4.332983954001975,2484,4095,4095
4.3356726260026335,2016,3344,3225
4.338362090002192,2126,2927,3280
4.3410488450026605,1951,2671,3115
4.343740684002114,1874,4095,4095
4.3464297730024555,2418,4095,4095
4.349118070000259,2443,4095,4095
4.351809076000791,2475,4095,4095
4.354498373002571,1968,4095,4095
4.357187878002151,2112,3627,2782
4.3598792590019,2587,4095,4095
4.362571056000888,1945,4095,4095
4.365258020003239,2407,4095,4095
4.367947525002819,2346,4095,4095
4.370636947001913,1914,2895,3297
4.3733309940034815,2486,4095,4095
4.376023250002618,2044,3811,3303
4.378711672001373,2406,4095,4095
4.381397344001016,1936,3824,3403
4.384085849000257,2305,4095,4095
4.386780147000536,2420,4095,4095
4.389470985002845,2439,4095,4095
4.392160491002869,2478,4095,4095
4.394849163003528,1945,4095,3433
4.397541168000316,2295,4095,4095
4.400229716000467,2006,1927,2721
4.402917054001591,1927,4095,4095
4.4056026010002824,2413,4095,4095
4.40829548200054,2295,4095,4095
4.410982612000225,1922,4095,4095
4.413668868000968,2487,4095,4095
4.416359665003256,2066,3738,3163
4.419052462002583,2679,4095,4095
4.421741634003411,1922,4095,3546
4.424432223000622,1872,2957,3303
4.4271205620025285,2422,4095,4095
4.429808109001897,2455,4095,4095
4.432497614001477,2477,4095,4095
4.435196370002814,1966,3408,3312
4.437915375001467,2559,4095,4095
4.440606089003268,1184,280,2493
4.443293886000902,880,4095,4095
4.44598418300302,1567,4095,4095
4.448674105002283,1935,4095,4095
4.4513661110031535,2108,4095,4095
4.454056783000851,2425,4095,4095
4.456742538000981,2099,3434,3029
4.459430836002866,2689,4095,4095
4.462119424002594,1943,4095,3635
4.464806555002724,1888,4095,4095
4.467495060001966,2433,4095,4095
4.470184441001038,1919,1262,2527
4.472878196000238,2480,4095,4095
4.475567702000262,1999,3519,3292
4.478255540001555,2126,2675,3047
4.4809447130028275,1968,1942,2931
4.483634760003042,1872,4095,4095
4.486322682001628,2414,4095,4095
4.489010646000679,2448,4095,4095
4.491699693000555,2445,4095,4095
4.494388615003118,2305,4095,4095
4.49707499500073,2096,3381,2974
4.49977229200158,2613,4095,4095
4.502459006002027,1946,4095,4095
4.5051439280032355,2240,4095,4095
4.507831475002604,2429,4095,4095
4.510519731000386,1918,1367,2875
4.513208945001679,2480,4095,4095
4.5158997000035015,2027,3398,3273
4.518589456001791,2127,3703,3707
4.521276919000229,1949,3058,3199
4.523965300002601,1889,4095,4095
4.526653389002604,2416,4095,4095
4.529339977001655,2448,4095,4095
4.532027566001489,2475,4095,4095
4.534718738002994,1949,4095,3647
4.53740745200048,2109,3777,2671
4.540094999003486,2419,4095,4095
4.542783421002241,2000,4095,4095
4.545471843000996,2410,4095,4095
4.5481630570029665,2316,4095,4095
4.550854313001764,1919,3623,3495
4.5535409430012805,2481,4095,4095
4.5562290320012835,2055,3951,3339
4.558916454003338,2559,4095,4095
4.561603626003489,1935,4095,3436
4.564290007001546,1872,3209,3664
4.566977469999983,2421,4095,4095
4.569664309001382,2448,4095,4095
4.572365690000879,2476,4095,4095
4.575056487003167,1952,4026,3363
4.5777444090017525,2517,4095,4095
4.580435623000085,2002,1100,2519
4.5831252110001515,1993,4095,4095
4.5858128420004505,2412,4095,4095
4.588501764003013,2335,4095,4095
4.591201811002975,1923,4095,4095
4.593919317001564,2489,4095,4095
4.596609155003534,2071,3661,3130
4.599323035999987,2672,4095,4095
4.602016666001873,1919,4095,3606
4.6047035890005645,1872,4095,3671
4.607391636000102,2429,4095,4095
4.610079933001543,2128,4095,3750
4.612768313003471,2485,4095,4095
4.61546386000191,1985,3577,3311
4.618155074000242,2123,3793,3180
4.620843579999928,1975,1043,2718
4.623532877001708,1940,4095,4095
4.626222257000336,2463,4095,4095
4.628931179002393,2514,4095,4095
4.631632852000621,2399,4095,4095
4.634325857001386,2161,4095,4095
4.63701561200287,1903,3440,3013
4.639704826000525,2583,4095,4095
4.6423979150022205,1920,4095,4095
4.6450881700002356,2014,4095,4095
4.6477765510026074,2452,4095,4095
4.650471806002315,1931,341,2582
4.6531608540026355,2494,4095,4095
4.655852692001645,2013,3503,3266
4.658540281001478,2137,2743,3213
4.661229787001503,1959,2559,3106
4.66392000000269,1874,4095,3911
4.666608006002207,2415,4095,4095
4.669295470001089,2435,4095,4095
4.672022308001033,2479,4095,4095
4.674724231001164,2158,4095,4095
4.677414444002352,2107,3691,2801
4.680102825001086,2603,4095,4095
4.682794664000539,1961,4095,4095
4.685481086002255,2367,4095,4095
4.6881698410034005,2375,4095,4095
4.690859555001225,1921,2901,3277
4.693549352003174,2481,4095,4095
4.696239441000216,2046,3735,3331
4.698936696000601,2391,4095,4095
4.7016300770010275,1936,3874,3346
4.70431920700139,2277,4095,4049
4.7070059630023025,2419,4095,4095
4.70969342600074,2448,4095,4095
4.712381307002943,2476,4095,4095
4.715069479003432,1948,4095,3412
4.717757901002187,2327,4095,4095
4.720448240001133,2002,1742,2693
4.72313712000323,1980,4095,4095
4.725825126002746,2411,4095,4095
4.728553798002395,2329,4095,4095
4.731247429001087,1920,4095,4095
4.733963226000924,2486,4095,4095
4.736656148001202,2069,3767,3126
4.739348820003215,2689,4095,4095
4.742039200002182,1920,4095,3603
4.744727623001381,1871,3925,3558
4.747418003000348,2417,4095,4095
4.750111300003482,2416,4095,4095
4.752802597002301,2479,4095,4095
4.755492186002812,1981,3531,3322
4.7581810250012495,2257,4095,4095
4.760869655001443,1981,640,2603
4.76355828600208,1934,4095,4095
4.766247083000053,2413,4095,4095
4.768941130001622,2438,4095,4095
4.771635135002725,2363,4095,4095
4.7743408490023285,2490,4095,4095
4.777028271000745,2092,3341,3043
4.7797187350006425,2639,4095,4095
4.782407074002549,1905,4095,4095
4.785094413000479,1866,4095,4095
4.787782960000186,2407,4095,4095
4.790470924002875,1917,592,2452
4.793158012002095,2479,4095,4095
4.795845935001125,2007,3527,3273
4.798541815001954,2133,2431,3106
4.801242279001599,1961,2240,2990
4.803932826001983,1875,4095,4095
4.806625248002092,2414,4095,4095
4.8093114200019045,2446,4095,4095
4.811998717003007,2476,4095,4095
4.814686973000789,2224,4095,4095
4.817374770002061,2106,3503,2977
4.820064275001641,2027,4095,4095
4.822754364002321,881,4095,4095
4.825441286000569,1365,4095,4095
4.8281406670030265,1798,4095,4095
4.8308298390002165,1637,2134,3105
4.8335182610026095,2384,4095,4095
4.836208975000773,2039,3532,3265
4.83889864700177,2161,4095,4095
4.841585777001455,1978,3359,3271
4.844275158000528,2320,4095,4095
4.846962663003069,2429,4095,4095
4.849654460002057,2451,4095,4095
4.852346257001045,2478,4095,4095
4.855034763000731,1943,4095,3582
4.857722185002785,2101,4095,4095
4.860412857000483,2016,3313,3107
4.863102571001946,1995,4095,4095
4.865792576001695,2411,4095,4095
4.8684849990022485,2288,4095,4095
4.871179879002739,1921,4095,3745
4.874069593002787,2490,4095,4095
4.87678034900091,2064,3816,3201
4.879475854002521,2674,4095,4095
4.882167693001975,1920,4095,3538
4.884856698001386,1867,4015,3583
4.887546704001579,2425,4095,4095
4.8902370010000595,2329,4095,4095
4.8929237150005065,2480,4095,4095
4.895613429001969,1985,3535,3311
4.898305559003347,2160,4095,4095
4.901006648000475,1974,720,2646
4.903698653000902,1925,4095,4095
4.90638732500156,2414,4095,4095
4.909072998001648,2438,4095,4095
4.911759670001629,2382,4095,4095
4.914446175000194,2461,4095,4095
4.917133139002544,2098,3346,3008
4.9198232690032455,2639,4095,4095
4.922511900000245,1905,4095,3687
4.925201072001073,1891,4095,4095
4.927890119000949,2427,4095,4095
4.930580124000699,1918,423,2472
4.933270130000892,2480,4095,4095
4.935959094000282,2010,3536,3247
4.938647058002971,2129,2484,3129
4.941335605002678,1959,2287,3039
4.944024985001306,1872,4095,3891
4.946712449000188,2415,4095,4095
4.9494023290026234,2447,4095,4095
4.9520948760000465,2471,4095,4095
4.954784465000557,2145,4095,4095
4.957472471000074,2107,3578,2802
4.960161101000267,2610,4095,4095
4.962853482000355,1899,4095,4095
4.965542779002135,2302,4095,4095
4.968233493000298,2402,4095,4095
4.9709230400003435,1919,2013,3063
4.973614628001087,2480,4095,4095
4.976307092001662,2034,3322,3235
4.978998473001411,2133,4095,4095
4.9816860200007795,1937,3271,3281
4.984376192001946,2331,4095,4095
4.987066239002161,2433,4095,4095
4.989753494002798,2448,4095,4095
4.992443875002209,2477,4095,4095
4.99513529700198,1946,4095,3520
4.997825136000756,2116,4095,4095
5.000552183002583,2014,3329,3091
5.0032486470008735,1975,4095,4095
5.0059603190020425,2505,4095,4095
5.0086504080027225,2743,4095,4095
5.011388455000997,2846,4095,4095
5.014103711000644,4095,4095,4095
5.016793341001176,4095,3582,3207
5.019483763000608,4095,4095,4095
5.022172227003466,2970,4095,3472
5.024859398999979,2379,3184,3353
5.027550988001167,2595,4095,4095
5.030240368003433,2435,4095,4095
5.032927332002146,2405,4095,4095
5.035617171000922,1909,3410,3281
5.038306176000333,2438,4095,4095
5.040993264999997,1963,320,2514
5.0436807710029825,1924,4095,4095
5.046369609000976,2407,4095,4095
5.0490597400021215,2439,4095,4095
5.051751620001596,2320,4095,4095
5.05444112600162,2490,4095,4095
5.057130464003421,2095,3335,3042
5.059820928003319,2655,4095,4095
5.062509392002539,1908,4095,3534
5.065197481002542,1867,4095,4095
5.067884361000324,2423,4095,4095
5.070573575001617,1915,1295,2542
5.073287122002512,2483,4095,4095
5.075985003000824,2005,3399,3262
5.078675550001208,2129,2461,3088
5.081363222001528,1965,2000,2934
5.084052727001108,1872,4095,3913
5.086740900002042,2414,4095,4095
5.089430113002891,2443,4095,4095
5.092124160000822,2462,4095,4095
5.094821458002116,2298,4095,4095
5.097509130002436,2105,3382,2955
5.100202885001636,2624,4095,4095
5.102934891001496,1922,4095,4095
5.10563881300186,2277,4095,4095
5.108333568001399,2386,4095,4095
5.111022282002523,1913,2002,3051
5.113709329001722,2490,4095,4095
5.11639687600109,2035,3433,3227
5.119086673003039,2133,4095,4095
5.121777887001372,1937,3323,3283
5.124470101000043,2303,4095,4095
5.127400940000371,2412,4095,4095
5.130259529003524,2449,4095,4095
5.132984868003405,2480,4095,4095
5.1356905400025425,1966,3369,3253
5.138385171001573,2539,4095,4095
5.141074135000963,1982,352,2503
5.143766349003272,1965,4095,4095
5.146455562000483,2411,4095,4095
5.149148858999979,2443,4095,4095
5.151842115003092,2331,4095,4095
5.154533745000663,2493,4095,4095
5.157225001003098,2092,3271,2992
5.159915798001748,2657,4095,4095
5.162605387002259,1901,4095,3603
5.165293017002114,1859,4095,4095
5.167981606002286,2423,4095,4095
5.170671153002331,1905,1037,2459
5.17336374200022,2482,4095,4095
5.176058831002592,2000,3365,3243
5.178749378002976,2128,2416,3049
5.181435425001837,1958,2003,2954
5.1841243890012265,1872,4095,3839
5.186815978002414,2416,4095,4095
5.189504525002121,2448,4095,4095
5.192193238002801,2458,4095,4095
5.194883911000943,2247,4095,4095
5.197570749001898,2174,3262,2927
5.20026492100078,2538,4095,4095
5.202960094000446,1333,4095,4095
5.205654891000449,1664,4095,4095
5.208344438000495,1981,4095,4095
5.21103056800348,1687,1594,2925
5.213716449001367,2369,4095,4095
5.216405996001413,2007,3312,3200
5.21909696000148,2143,4095,4095
5.221783382003196,1952,3229,3204
5.224472762001824,1932,4095,4095
5.2271589760021016,2418,4095,4095
5.229846481001005,2448,4095,4095
5.232575404003001,2478,4095,4095
5.235266450999916,1935,4095,3461
5.237958290003007,2113,4095,4095
5.240654587003519,2006,3403,3056
5.2433498420032265,1937,4095,4095
5.24604238900065,2406,4095,4095
5.24873327000023,2279,4095,4095
5.251429192001524,1911,4095,3657
5.254122656002437,2486,4095,4095
5.256810994000261,2059,3613,3122
5.259501458000159,2703,4095,4095
5.262202089001221,1916,4095,3494
5.264910886002326,1856,2417,3106
5.267609558002732,2416,4095,4095
5.270298188002926,2448,4095,4095
5.272987277003267,2474,4095,4095
5.2756835330001195,1949,3274,3235
5.278375663001498,2555,4095,4095
5.281063002003066,1979,147,2406
5.283754382002371,1922,4095,4095
5.2864431380003225,2402,4095,4095
5.2891306430028635,2353,4095,4095
5.291820899001323,2249,4095,4095
5.294509404000564,2487,4095,4095
5.297199118002027,2079,3219,3037
5.299894790001417,2666,4095,4095
5.302589879000152,1903,4095,3583
5.305285301001277,1854,4095,4095
5.307977723001386,2417,4095,4095
5.310665187000268,1901,2251,2679
5.31335135900008,2479,4095,4095
5.316038073000527,1984,3324,3221
5.318725162000192,2125,2951,3091
5.321412667002733,1955,1535,2772
5.324102548001974,1861,4095,4095
5.326792761003162,2404,4095,4095
5.329480684002192,2436,4095,4095
5.332170939000207,2402,4095,4095
5.334860111001035,2334,4095,4095
5.337548783001694,2092,3179,2906
5.340255747003539,2625,4095,4095
5.342954294002993,1886,4095,4095
5.3456439660003525,2182,4095,4095
5.348334805003105,2422,4095,4095
5.351038436001545,1904,816,2690
5.353734858003008,2480,4095,4095
5.356426446000114,2015,3104,3138
5.359116785002698,2122,3474,3556
5.3618049990000145,1934,3018,3179
5.364495755002281,1857,4095,4095
5.367187968000508,2407,4095,4095
5.369907891003095,2441,4095,4095
5.372601313003543,2467,4095,4095
5.375299526000163,1933,4095,3530
5.3779915740014985,2102,3825,2589
5.380680287002178,1853,4095,3933
5.383368459002668,1093,4095,4095
5.386062548001064,1675,4095,4095
5.388755179003056,1841,4095,4095
5.391445059001853,1686,3778,3509
5.394135565002216,2401,4095,4095
5.396824778003065,2041,3691,3153
5.401365079000243,2735,4095,4095
5.404064168000332,1893,4095,4095
5.406763257000421,2416,4095,4095
5.409458221001842,2438,4095,4095
5.412148643001274,2382,4095,4095
5.414838065000367,2401,4095,4095
5.417524779000814,2084,3223,2973
5.420213243000035,2631,4095,4095
5.4229059150020475,1887,4095,4095
5.425594087002537,1927,4095,4095
5.4282865510031115,2417,4095,4095
5.430976556002861,1885,365,2521
5.433665353000833,2475,4095,4095
5.436355359001027,2000,3189,3152
5.4390479890025745,2256,2703,3175
5.441734536001604,1941,2557,3093
5.444430875002581,1859,4095,3854
5.447122505000152,2401,4095,4095
5.449811094000324,2432,4095,4095
5.452501475003373,2450,4095,4095
5.455192688001262,1932,4095,4095
5.457912402001966,2096,3331,2695
5.460603699000785,2559,4095,4095
5.463294247001613,1904,4095,4095
5.465984210000897,2331,4095,4095
5.468672924002021,2340,4095,4095
5.471369096001581,1904,2759,3239
5.474101393003366,2469,4095,4095
5.476798774001509,2032,3426,3184
5.47949098800018,2539,4095,4095
5.482183285002975,1916,4031,3444
5.48487249900063,2191,4095,3838
5.487563171001966,2407,4095,4095
5.490251926003111,2437,4095,4095
5.492939807001676,2464,4095,4095
5.495630937002716,1930,3785,3327
5.498320609000075,2335,4095,4095
5.50100994800232,1991,1439,2608
5.503700162000314,1885,4095,4095
5.506389251000655,2391,4095,4095
5.509085839003092,2194,4095,4095
5.511773512000218,1909,4095,4095
5.5144597250000515,2475,4095,4095
5.5171478140000545,2064,3331,3046
5.519837403000565,2669,4095,4095
5.522533825002029,1904,4095,3504
5.525220956002158,1857,3371,3418
5.527911419001612,2411,4095,4095
5.530600216003222,2439,4095,4095
5.533291972002189,2468,4095,4095
5.535982394001621,1966,3135,3216
5.538670733003528,2492,4095,4095
5.5413584880006965,1968,510,2558
5.544048409999959,1870,4095,3855
5.5467366660013795,2394,4095,4095
5.549425005003286,2423,4095,4095
5.552112843000941,2319,4095,4095
5.554801474001579,2480,4095,4095
5.557487646001391,2084,3197,2959
5.560176943003171,2633,4095,4095
5.5628641990006145,1889,4095,3535
5.565552079002373,1858,4095,4095
5.568241459001001,2637,4095,4095
5.570930882000539,2547,1139,2519
5.5736184699999285,4092,4095,4095
5.5763151420032955,3963,3280,3230
5.579005315001268,4095,2455,3092
5.581691570001567,3170,2064,2913
5.584378409002966,2487,4095,3829
5.587065622999944,2671,4095,4095
5.589751003000856,2455,4095,4095
5.592443467001431,2363,4095,4095
5.595133431001159,2070,4095,4095
5.597822311003256,2046,3111,2691
5.600561817002017,2559,4095,4095
5.603261447002296,1879,4095,4095
5.60597870300262,2213,4095,4095
5.608677666001313,2368,4095,4095
5.611372630002734,1909,2220,3116
5.614068052000221,2479,4095,4095
5.616753349000646,2032,2966,3134
5.619439980000607,2127,4095,4095
5.622127069000271,1933,3446,3331
5.624814657003299,2342,4095,4095
5.627504788000806,2405,4095,4095
5.630195752000873,2439,4095,4095
5.632882841000537,2466,4095,4095
5.6355711790019996,1937,4095,3452
5.638259934999951,2111,4095,4095
5.640948149000906,2002,3287,3104
5.64363811200019,1883,4095,4095
5.646327326001483,2397,4095,4095
5.649013415000809,2263,4095,4095
5.651707337001426,1916,4095,3725
5.654399468003248,2476,4095,4095
5.657104765003169,2059,3570,3087
5.659806437000952,2683,4095,4095
5.662499276000744,1917,4095,3552
5.665187489001255,1861,2418,3158
5.667876120001893,2413,4095,4095
5.670565042000817,2447,4095,4095
5.673252839002089,2471,4095,4095
5.675957385999936,1954,2946,3154
5.678648017001251,2640,4095,4095
5.681333647000429,1983,157,2466
5.68402356900333,1874,4095,3399
5.686721200003376,2389,4095,4095
5.6894099970013485,2349,4095,4095
5.692100752003171,2199,4095,4095
5.694793924001715,2479,4095,4095
5.697484722000809,2083,3219,2961
5.700178435003181,2643,4095,4095
5.702869357002783,1904,4095,3583
5.70555798800342,1862,4095,3856
5.70824695200281,2416,4095,4095
5.710939707001671,1905,2271,2731
5.713625296000828,2465,4095,4095
5.716315926001698,1990,3138,3195
5.719002182002441,2129,2595,3056
5.7216880210035015,1965,1669,2879
5.724377026002912,1871,4095,3843
5.727069240001583,2407,4095,4095
5.729758495002898,2435,4095,4095
5.73244891700233,2406,4095,4095
5.735138840002037,2320,4095,4095
5.7378343870004755,2096,3261,2922
5.740571976002684,2612,4095,4095
5.74326639800347,1891,4095,3538
5.745958403000259,2192,4095,4095
5.7486467000017,2402,4095,4095
5.751340039001661,1907,1339,2861
5.754032711000036,2477,4095,4095
5.756723633003276,2027,3210,3186
5.759416222001164,2101,3829,3664
5.762105519002944,1046,2995,3134
5.764792983001826,891,4095,4095
5.767482322000433,1696,4095,4095
5.7701754520021495,2039,4095,4095
5.772863874000905,2304,4095,4095
5.775559338002495,1911,4095,3630
5.778250510000362,2128,3843,2639
5.780939891003072,2445,4095,4095
5.78363056300077,1905,4095,2990
5.786320235001767,2423,4095,4095
5.789009366002574,2289,4095,4095
5.791700621000928,1920,4003,3552
5.794389418002538,2483,4095,4095
5.797079007003049,2046,3341,3071
5.799779679000494,2599,4095,4095
5.802473018000455,1926,3564,3292
5.805165607001982,1867,2698,2985
5.807856362000166,2410,4095,4095
5.810555451000255,2434,4095,4095
5.81418591700276,2460,4095,4095
5.816881964001368,1936,4095,3415
5.819570594001561,2119,4095,4095
5.822257266001543,1933,3304,3263
5.824943522002286,2261,4095,4095
5.827630819003389,2399,4095,4095
5.8303204080002615,2437,4095,4095
5.833008705001703,2469,4095,4095
5.835697585000162,1933,4095,3583
5.838386507002724,2114,4095,4095
5.8410740540020925,2009,3411,3120
5.8437627680032165,1886,4095,4095
5.846449649001443,2399,4095,4095
5.84913932100244,2300,4095,4095
5.851833910001005,1917,4095,4095
5.854526415001601,2481,4095,4095
5.857214796000335,2063,3841,3254
5.859904884000571,2687,4095,4095
5.862595140002668,1921,4095,3487
5.865282520000619,1863,2401,3152
5.867969817001722,2414,4095,4095
5.870657906001725,2443,4095,4095
5.873346828000649,2476,4095,4095
5.876084209001419,1957,4021,3417
5.878777923000598,2558,4095,4095
5.8814660950010875,1983,183,2448
5.884157808002783,1872,4095,2195
5.886846938999952,2398,4095,4095
5.889533736000885,2379,4095,4095
5.892222617003426,2229,4095,4095
5.894911664003303,2483,4095,4095
5.89759729400248,2079,3527,3107
5.900300591001724,2655,4095,4095
5.902993722000247,1909,4095,3601
5.905681477001053,1866,4095,4095
5.908368816002621,2416,4095,4095
5.91106090500034,1905,1990,2684
5.913751577001676,2475,4095,4095
5.916441166002187,1994,4095,3410
5.919128045999969,2128,2854,3102
5.921813885001029,1966,1390,2771
5.924507182000525,1867,4095,2363
5.9271981040001265,2405,4095,4095
5.929917235000175,2428,4095,4095
5.9326090320028015,2462,4095,4095
5.935296996001853,2385,4095,4095
5.937986418000946,2098,3895,3056
5.940672173001076,2615,4095,4095
5.943360970002686,1900,4095,3653
5.946052642000723,2243,4095,4095
5.94874231400172,2679,4095,4095
5.951433153000835,2535,1250,2864
5.954122784001811,3952,4095,4095
5.9568111230000795,3819,2992,3197
5.959501586003171,3994,3127,3375
5.962189842000953,3024,2607,3061
5.964878681003029,2421,4095,4095
5.967566853003518,2634,4095,4095
5.9702537750017655,2453,4095,4095
5.972938072001853,2411,4095,4095
5.975633286001539,1900,4095,4095
5.978324291001627,2067,3869,2859
5.981011047002539,2546,4095,4095
5.983700927001337,2081,4095,4095
5.986392266000621,2399,4095,4095
5.989078688002337,2238,4095,4095
5.991766943003313,1915,3981,3563
5.994453657000122,2481,4095,4095
5.997153413001797,2063,3955,3371
5.999851460001082,2611,4095,4095
6.002543382001022,1931,3365,3262
6.005231179002294,1867,3101,2987
6.0079315600014525,2415,4095,4095
6.010621565001202,2442,4095,4095
6.013361196000915,2475,4095,4095
6.016077326003142,1955,4095,3504
6.018766956000036,2559,4095,4095
6.021454170000652,1994,800,2490
6.024141176003468,1878,4095,2236
6.026828765003302,2406,4095,4095
6.029514895002649,2224,4095,4095
6.032203317001404,2079,4095,4095
6.034892031002528,2481,4095,4095
6.0375796200023615,2078,3600,3103
6.04026829200302,2667,4095,4095
6.042959006001183,1915,4095,3316
6.0456466780015035,1861,4095,3701
6.04833522500121,2421,4095,4095
6.0510256470006425,2043,4078,3750
6.0537126940034796,2477,4095,4095
6.056401991001621,1983,4095,3531
6.0590910380014975,2128,3532,3147
6.061778252002114,1969,731,2628
6.064465883002413,1872,4095,2174
6.067153513002268,2409,4095,4095
6.069842767999944,2434,4095,4095
6.072572774002765,2365,4095,4095
6.075264696002705,2417,4095,4095
6.077989368000999,2096,4095,3722
6.080681249000918,2628,4095,4095
6.0833720460032055,1902,4095,3443
6.0860623010012205,2207,4095,4095
6.088749390000885,2421,4095,4095
6.091437896000571,1911,720,2663
6.094125734001864,2480,4095,4095
6.0968136560004496,2016,4095,3457
6.099503537003329,2133,2839,3238
6.102199459000985,1943,2128,2961
6.104889256002934,1866,4095,2505
6.107580637002684,2406,4095,4095
6.11026989200036,2443,4095,4095
6.112963231000322,2470,4095,4095
6.1156771530004335,2128,4095,4095
6.118378367002151,2108,3722,2877
6.121066039002471,2590,4095,4095
6.123758753001312,1889,4095,3395
6.126446175003366,2389,4095,4095
6.129132472000492,2263,4095,4095
6.131822311002907,1913,3055,3319
6.13452023300124,2480,4095,4095
6.137210447002872,2055,3297,3194
6.139900786001817,2586,4095,4095
6.1425892490005936,962,3002,3139
6.145276005001506,1311,4095,4059
6.147964760002651,1705,4095,4095
6.150652807002189,2053,4095,4095
6.153340646000288,2314,4095,4095
6.156029860001581,1922,4095,3427
6.158718240003509,2231,4095,4095
6.161404704002052,2041,1707,2662
6.164092418002838,2100,4095,4095
6.166780840001593,2426,4095,4095
6.169469429001765,2293,4095,4095
6.1721600590026355,1916,4095,4095
6.174849606002681,2480,4095,4095
6.177540820001013,2074,4095,3350
6.180231701000594,2678,4095,4095
6.182920581002691,1918,4030,3390
6.185605837003095,1859,3280,3391
6.1882941750009195,2417,4095,4095
6.190981722000288,2447,4095,4095
6.193667853000079,2471,4095,4095
6.1963724000015645,1967,4080,3458
6.199070197002584,2199,4095,4095
6.201766078000219,1980,237,2480
6.204458083000645,1872,4095,2105
6.207149630001368,2410,4095,4095
6.209836719001032,2383,4095,4095
6.212573100001464,2387,4095,4095
6.2152652720033075,2490,4095,4095
6.21795702700183,2096,3331,3017
6.220644616001664,2643,4095,4095
6.223333246001857,1904,3154,3059
6.226020044003235,1867,4095,4095
6.228706424000848,2407,4095,4095
6.231395138001972,1913,533,2470
6.234087935001298,2480,4095,4095
6.236778607002634,2005,3135,3166
6.239467862000311,2134,2803,3126
6.24215924300006,1959,2421,3088
6.2448474150005495,1936,4095,4095
6.247536795002816,2414,4095,4095
6.25022630100284,2438,4095,4095
6.252915931003372,2427,4095,4095
6.255606562001049,2365,4095,4095
6.2582964840003115,2112,3415,3059
6.260984698001266,2610,4095,4095
6.263673787001608,1895,4095,3396
6.2663658340024995,2227,4095,4095
6.269055422002566,2328,4095,4095
6.271747970000433,1911,1997,3067
6.2744373500026995,2480,4095,4095
6.2771306470021955,2032,3675,3295
6.279864736003219,2132,4095,4095
6.282558158000029,1939,2687,3067
6.285248497002613,2320,4095,4095
6.287939877001918,2423,4095,4095
6.290630383002281,2439,4095,4095
6.293317305000528,2473,4095,4095
6.296008227000129,1943,4095,3583
6.298699733000831,2118,4095,4095
6.301392988003499,2016,3021,3033
6.304083827002614,1910,4095,4095
6.306774457003485,2400,4095,4095
6.309463004003192,2269,4095,4095
6.312150885001756,1920,4095,3817
6.314840724000533,2480,4095,4095
6.317545062000136,2064,3949,3232
6.320453027001349,2688,4095,4095
6.323142824003298,1914,4095,3623
6.325827620999917,1850,4095,3667
6.328560460002336,2495,4095,4095
6.331250840001303,2352,3818,3697
6.333971012001712,3455,4095,4095
6.336662060002709,3248,3424,3295
6.33935289800138,3714,4095,4000
6.342041237003286,3002,1554,2786
6.344728534000751,2438,4095,2242
6.347418706001918,2669,4095,4095
6.350108254002407,2479,4095,4095
6.3527973420023045,2266,4095,4095
6.355486848002329,2302,4095,4095
6.358176145000471,2062,4095,3294
6.360863775000325,2606,4095,4095
6.363553156003036,1895,4095,3478
6.366244161003124,2093,4095,4095
6.368930667002132,2430,4095,4095
6.3716190890008875,1914,511,2624
6.374308094000298,2484,4095,4095
6.377003600002354,2015,3437,3277
6.37969448000149,2126,3102,3338
6.382384652002656,1952,2015,2949
6.385071033000713,1869,4095,2317
6.38776383000004,2408,4095,4095
6.390456585002539,2440,4095,4095
6.393146924001485,2465,4095,4095
6.395838263000769,2161,4095,4095
6.398527185003331,2110,3606,3036
6.4012155240016,2595,4095,4095
6.403906904000905,1890,4095,3405
6.406595035001374,2359,4095,4095
6.409281539999938,2309,4095,4095
6.411970546003431,1914,2588,3186
6.414660009002546,2480,4095,4095
6.417360723000456,2046,4011,3356
6.42005072900065,2494,4095,4095
6.4227375670016045,1936,4095,3600
6.425426031000825,2233,4095,4095
6.428115662001801,2416,4095,4095
6.430812584003434,2479,4095,4095
6.433499381000729,2478,4095,4095
6.436190345000796,1949,4095,3570
6.438880350000545,2125,4095,4095
6.44156743900021,2009,3438,3143
6.444256653001503,1886,4095,2598
6.446945117000723,2405,4095,4095
6.449633789001382,1889,4095,4095
6.452328169001703,1918,4095,3838
6.45501671600141,2483,4095,4095
6.457706388002407,2059,4095,3535
6.460397727001691,2683,4095,4095
6.463086566000129,1922,4095,3377
6.4657744460018876,1871,3187,3349
6.46846416000335,2416,4095,4095
6.471150749002845,2449,4095,4095
6.473837629000627,2474,4095,4095
6.476569760001439,1978,3612,3314
6.479262432003452,2421,4095,4095
6.481987563001894,1984,222,2470
6.484678818000248,1874,4095,2170
6.487369407001097,2405,4095,4095
6.490059537001798,2437,4095,4095
6.492747126001632,2303,4095,4095
6.495437048000895,2483,4095,4095
6.498125387002801,2093,3856,3162
6.5008127670007525,2658,4095,4095
6.50350485600211,1905,4095,3370
6.5061932370008435,1866,4095,4095
6.508879242002877,2419,4095,4095
6.511567373003345,1911,775,2458
6.514253670000471,2475,4095,4095
6.516952259000391,2000,4095,3564
6.519651514001453,2122,2401,3110
6.522348520000378,1088,2013,2870
6.5250304420005705,861,4095,4095
6.527721822003514,1648,4095,4095
6.530412911000894,1998,4095,4095
6.533101291002822,2183,4095,4095
6.535789797002508,1904,3932,3323
6.538478719001432,2362,4095,4095
6.541164974001731,2646,4095,4095
6.54385364600239,1926,4095,3214
6.54654027700235,2275,4095,4095
6.5492267410008935,2359,4095,4095
6.551917538003181,1918,1834,3005
6.554606918001809,2480,4095,4095
6.557294715003081,2032,4095,3534
6.559983429000567,2130,4095,4095
6.5626730600015435,1943,3039,3184
6.565359898002498,1870,4095,4095
6.568049029003305,2414,4095,4095
6.570736076002504,2445,4095,4095
6.573422040000878,2453,4095,4095
6.57611054500012,1987,4095,4095
6.578807134003,2112,4095,4095
6.581494598001882,2218,4095,3957
6.584185520001483,1874,4095,2886
6.586875609002163,2407,4095,4095
6.5895637390021875,2255,4095,4095
6.592255453000689,1918,4095,3569
6.594945333003125,2480,4095,4095
6.597633297002176,2053,3837,3296
6.600322386002517,2698,4095,4095
6.603011933002563,1933,3115,3169
6.605698522002058,1869,2384,3025
6.60838631900333,2415,4095,4095
6.611073449003015,2450,4095,4095
6.6137594130013895,2475,4095,4095
6.61644708500171,1950,3312,3262
6.619139882001036,2446,4095,4095
6.6218284710012085,2001,605,2447
6.624545643000602,2070,4095,4095
6.627234774001408,2411,4095,4095
6.629948988000251,2223,4095,4095
6.632643327000551,1918,4095,4095
6.635332999001548,2471,4095,4095
6.638022754003032,2077,3600,3115
6.640713218002929,2667,4095,4095
6.643404890000966,1918,4095,3376
6.646094270003232,1871,4095,3787
6.648783401000401,2422,4095,4095
6.65147824000087,1907,3025,2960
6.654169745001127,2482,4095,4095
6.656857792000665,1986,3974,3429
6.659547298000689,2128,3138,3110
6.662236762000248,1972,367,2492
6.664923559001181,1875,3191,1866
6.667612522000127,2403,4095,4095
6.670299986002647,2438,4095,4095
6.67298724200009,2403,4095,4095
6.675675914000749,2448,4095,4095
6.6783705440029735,2096,4095,3335
6.681061050003336,2632,4095,4095
6.68378734700309,1904,3578,3088
6.686479394000344,2112,4095,4095
6.689168900000368,2421,4095,4095
6.691857280002296,1910,611,2658
6.694547452003462,2481,4095,4095
6.6972343740017095,2017,3888,3359
6.699923213000147,2131,2895,3282
6.702613510002266,1951,2639,3059
6.705301016001613,1866,4095,3775
6.7079904380007065,2441,4095,4095
6.710679818002973,2732,4095,4095
6.713369657001749,3361,4095,4095
6.7160594960005255,2928,4095,4095
6.718751835000148,3546,4016,2871
6.721441090001463,4095,4095,4095
6.724130720001995,2599,4095,4095
6.726822809003352,2758,4095,4095
6.729513648002467,2416,4095,4095
6.732205445001455,1901,2896,3262
6.734895534002135,2402,4095,4095
6.737584456001059,2000,4095,3548
6.7402758360003645,2147,4095,4095
6.742965550001827,1922,3181,3218
6.745656514001894,2033,4095,3805
6.748348936002003,2416,4095,4095
6.751038817001245,2448,4095,4095
6.753728905001481,2477,4095,4095
6.756419286000892,2083,4095,4095
6.7591101250000065,2171,4095,4095
6.7617985470024,2003,1999,2736
6.764489052002318,1887,4095,2250
6.76717814100266,2407,4095,4095
6.769867522001732,2265,4095,4095
6.772589110001718,2277,4095,4095
6.7752804910014675,2481,4095,4095
6.777984996002488,2069,4095,3237
6.7806752100004815,2679,4095,4095
6.783365966002748,1923,4095,3391
6.786056429002201,1869,3779,3491
6.788745601003029,2422,4095,4095
6.7914329820014245,2448,4095,4095
6.794123279003543,2477,4095,4095
6.796816909001791,1974,4095,3553
6.799507290001202,2420,4095,4095
6.80219887900239,1983,234,2464
6.80488655100271,1873,4095,2101
6.807576890001656,2409,4095,4095
6.810266812000918,2442,4095,4095
6.812956276000477,2352,4095,4095
6.815645989001496,2485,4095,4095
6.818337870001415,2093,3701,3071
6.821030834002158,2647,4095,4095
6.823716881001019,1911,4095,3486
6.8264053860002605,1874,4095,4095
6.8290890580028645,2426,4095,4095
6.831778105002741,1905,592,2476
6.834470569003315,2479,4095,4095
6.837160241000674,2005,3568,3323
6.839850121999916,2133,2458,3042
6.842540919002204,1962,1957,2912
6.845230174003518,1872,4095,2320
6.847919513002125,2414,4095,4095
6.850610269000754,2438,4095,4095
6.853305774002365,2352,4095,4095
6.85599844600074,2491,4095,4095
6.8586884520009335,2103,4095,3639
6.861378207002417,2612,4095,4095
6.864069629002188,1904,4095,3183
6.866761510002107,2304,4095,4095
6.8694502230027865,2405,4095,4095
6.87214043700078,1920,1809,3029
6.87483181800053,2482,4095,4095
6.877526240001316,2027,4095,3568
6.880219079001108,2125,4095,4095
6.882910584001365,1939,2352,3003
6.885628715001076,2240,4095,4095
6.8883212200016715,2411,4095,4095
6.8910126840019075,2439,4095,4095
6.893702231001953,2469,4095,4095
6.89639269500185,1939,4095,3664
6.8990834090000135,2115,4095,4095
6.901769997002702,1335,3060,3039
6.904463044000295,831,4095,2481
6.907154758002434,1532,4095,4095
6.909853222001402,1712,4095,4095
6.912574894002319,1671,4095,3599
6.9152651080003125,2412,4095,4095
6.917956780001987,2079,4095,3279
6.920650077001483,2731,4095,4095
6.92333791600322,1961,4095,3553
6.92602638000244,1891,2843,3283
6.928708344003098,2432,4095,4095
6.931396474003122,2453,4095,4095
6.934086646000651,2478,4095,4095
6.936777943003108,1963,4095,3568
6.939469699002075,2630,4095,4095
6.942160746002628,1990,418,2427
6.944847918002779,1878,4095,2082
6.94753750700329,2411,4095,4095
6.950227262001135,2437,4095,4095
6.952916643000208,2320,4095,4095
6.955607857002178,2480,4095,4095
6.958296987002541,2086,3474,3182
6.960983534001571,2657,4095,4095
6.963673081001616,1917,4095,3627
6.966361045000667,1868,4095,4095
6.96905130000232,2420,4095,4095
6.971742139001435,1910,2338,2751
6.974434186002327,2479,4095,4095
6.977126775000215,1995,4095,3632
6.979818781001086,2128,2957,3011
6.982509244000539,1968,1110,2698
6.985200708000775,1875,4095,2234
6.987890464002703,2412,4095,4095
6.990580261001014,2441,4095,4095
6.993269266000425,2466,4095,4095
6.995958313000301,2374,4095,4095
6.998647152002377,2096,3302,2970
7.001336533001449,2630,4095,4095
7.004033663000882,1990,4095,4095
7.0067239190029795,2111,4095,4095
7.009411549002834,2426,4095,4095
7.012100429001293,1917,1036,2771
7.014834393001365,2480,4095,4095
7.017548566000187,2021,3328,3220
7.020244071001798,2128,4095,4095
7.02293266000197,1947,2528,3054
7.025620874002925,2053,4095,4095
7.0283163790008985,2419,4095,4095
7.031012508999993,2444,4095,4095
7.033702223001455,2466,4095,4095
7.036393187001522,1943,4095,3744
7.039084901000024,2113,4095,4095
7.041773073000513,2192,4095,4047
7.044463953003287,1891,4095,2784
7.0471551260015985,2411,4095,4095
7.049844006000058,2225,4095,4095
7.052564053003152,1919,4095,3808
7.05525693400341,2485,4095,4095
7.0579691890015965,2430,4095,4095
7.060659486000077,2690,4095,4095
7.063350825002999,1933,3310,3245
7.066043164002622,1872,2609,3131
7.0687327530031325,2416,4095,4095
7.071422550001444,2450,4095,4095
7.074114514001849,2478,4095,4095
7.076801686002,1951,4095,3542
7.079497483002342,2695,4095,4095
7.0821893220017955,1995,934,2523
7.084877577002771,1874,4095,2143
7.087593583000853,2402,4095,4095
7.0902851300015755,2533,4095,4095
7.092974552000669,2501,4095,4095
7.095666807002999,3479,4095,4095
7.098357146001945,3258,4095,3411
7.101047443000425,4095,4095,4095
7.103739699003199,2621,4095,3358
7.106431037002039,2224,4095,4095
7.1091203760006465,2551,4095,4095
7.111811257000227,1917,2431,2779
7.114500804000272,2441,4095,4095
7.117189809003321,1953,4095,3601
7.119879523001146,2103,2957,3031
7.1226043200003915,1961,1108,2698
7.125330326001858,1872,4095,2183
7.128025165002327,2409,4095,4095
7.1307215450033254,2438,4095,4095
7.133412134000537,2433,4095,4095
7.136103389002528,2303,4095,4095
7.138794978000078,2101,3459,2991
7.141482650000398,2619,4095,4095
7.144173031003447,1905,4095,3504
7.146862744000828,2178,4095,4095
7.1495518750016345,2426,4095,4095
7.152242380001553,1912,1557,2927
7.15493871900253,2482,4095,4095
7.157627558000968,2021,3629,3269
7.160317855003086,2130,4095,4095
7.163008486000763,1952,2134,2969
7.165697616001125,1929,4095,4095
7.168388371002948,2417,4095,4095
7.171077585000603,2448,4095,4095
7.173765632000141,2476,4095,4095
7.1764553880020685,2087,4095,4095
7.179152143002284,2113,4095,4095
7.181839982000383,2326,4095,4069
7.184561779002252,1894,4095,2902
7.187252285002614,2409,4095,4095
7.189963915003318,2290,4095,4095
7.1926548370029195,1915,4095,4095
7.195347093002056,2484,4095,4095
7.1980377650033915,2059,3357,3086
7.2007246450011735,2691,4095,4095
7.203415484000288,1931,4095,3440
7.206104240001878,1871,2397,3131
7.20879257800334,2417,4095,4095
7.211481417001778,2448,4095,4095
7.214170548002585,2479,4095,4095
7.216858095001953,1949,4095,3535
7.2195456420013215,2592,4095,4095
7.22223968900289,2000,945,2528
7.224928319003084,1885,4095,2272
7.227616283002135,2404,4095,4095
7.230303122003534,2237,4095,4095
7.232993794001231,1967,4095,4095
7.23568375800096,2483,4095,4095
7.23837326300054,2077,3979,3382
7.241091851999954,2672,4095,4095
7.243792399000085,1919,4095,3407
7.246485321000364,1872,4095,4095
7.2491753270005574,2416,4095,4095
7.251867207000032,1907,2529,2818
7.254561838002701,2478,4095,4095
7.257253052001033,1989,4095,3517
7.259945224002877,2469,4095,4095
7.26263627100343,1968,1230,2761
7.26532302600026,1873,4095,2242
7.26801657300166,2411,4095,4095
7.270736412003316,2437,4095,4095
7.273440251003194,2449,4095,4095
7.2761345070030075,2441,4095,4095
7.278839304002759,2099,4095,3515
7.281528184001218,2095,4095,4095
7.284218273001898,838,4095,3234
7.286909153001034,1378,4095,4095
7.289640492002945,1810,4095,4095
7.292332414002885,1622,1303,2864
7.295022295002127,2377,4095,4095
7.297712008999952,2027,4095,3494
7.300400889002049,2165,4095,4095
7.303096936000657,1988,2513,3047
7.305785858003219,1894,4095,4095
7.308475656001974,2429,4095,4095
7.311163286001829,2448,4095,4095
7.313851458002318,2471,4095,4095
7.316572880001331,1941,4095,4095
7.319262218999938,2069,4095,4095
7.321975016002398,2130,4095,3951
7.3246732300031,1886,4095,2835
7.3273727360028715,2409,4095,4095
7.330065699003171,2299,4095,4095
7.332747288000974,1916,4095,4095
7.335437127003388,2480,4095,4095
7.338128091003455,2063,3825,3331
7.340817763000814,2693,4095,4095
7.3435076430032495,1930,3510,3299
7.346198940002068,1872,2423,3110
7.348887279000337,2416,4095,4095
7.351577118002751,2448,4095,4095
7.354271332002099,2478,4095,4095
7.356957796000643,1955,4095,3467
7.3596468010000535,2633,4095,4095
7.362335431000247,1999,315,2416
7.365022729001794,1879,4095,2110
7.367712609000591,2411,4095,4095
7.3704002810009115,2057,4095,4095
7.373088370000914,2160,4095,4095
7.375777625002229,2487,4095,4095
7.378470798001217,2081,3409,3062
7.381164636000904,2663,4095,4095
7.383885850002116,1922,4095,4095
7.38658327200028,1872,4095,3893
7.3892784859999665,2428,4095,4095
7.391969492000499,1914,2352,2759
7.394659789002617,2477,4095,4095
7.397350419003487,1986,4095,3447
7.400040216001798,2123,3470,3136
7.4027319300003,1963,1406,2787
7.405422227002418,1964,4095,4095
7.408112608001829,2409,4095,4095
7.410805571002129,2433,4095,4095
7.413495410000905,2438,4095,4095
7.416183957000612,2432,4095,4095
7.4188762130033865,2105,2807,2890
7.421566552002332,2630,4095,4095
7.424261682001088,1997,4095,4095
7.426952021000034,2256,4095,4095
7.42964036000194,2427,4095,4095
7.4323288230007165,1915,739,2685
7.4350192040001275,2480,4095,4095
7.437708959001611,2035,4095,4095
7.440399506001995,2135,3051,3326
7.443092595000053,1955,2624,3045
7.445783226001367,1872,4095,4095
7.4484741060005035,2412,4095,4095
7.45116427800167,2445,4095,4095
7.4538536590007425,2471,4095,4095
7.456575789001363,2159,4095,4095
7.459265628000139,2118,4095,3412
7.461954342001263,2509,4095,4095
7.46464268100317,1888,4095,3010
7.467333311000402,2400,4095,4095
7.470025233000342,2419,4095,4095
7.472714864001318,2384,3235,3389
7.475405536002654,3610,4095,4095
7.478095791000669,3413,4095,3709
7.480789880002703,4095,4095,4095
7.483482177001861,2785,3181,3159
7.486170891002985,2309,2694,3083
7.488857313001063,2592,4095,4095
7.4915905270027,2453,4095,4095
7.49428194900247,2431,4095,4095
7.49697170500076,1901,4095,3630
7.4996717930007435,2654,4095,4095
7.502361340000789,1980,1168,2559
7.505051888001617,1872,4095,2311
7.50774364300014,2407,4095,4095
7.510440524001751,2386,4095,4095
7.513128029000654,2208,4095,4095
7.515816951003217,2485,4095,4095
7.5185047070008295,2080,4095,3333
7.5211949620024825,2672,4095,4095
7.523884051002824,1918,4095,3351
7.526574556002743,1881,4095,3860
7.529263270000229,2419,4095,4095
7.531951317003404,1907,3266,3492
7.5346412810031325,2478,4095,4095
7.5373304530003224,1981,4095,4095
7.540019833002589,2397,4095,4095
7.542710256002465,1979,606,2589
7.545398303002003,1876,4095,4095
7.548089767002239,2413,4095,4095
7.550777939002728,2439,4095,4095
7.553464986001927,2459,4095,4095
7.5561557410001114,2447,4095,4095
7.558845913001278,2097,4095,3135
7.561534335000033,2640,4095,4095
7.564223091001622,1905,4095,3370
7.566912055001012,2007,4095,4095
7.569602477000444,2418,4095,4095
7.57229202400049,1917,401,2559
7.574982738002291,2480,4095,4095
7.577672785002505,2013,4095,3415
7.580370499003038,2141,2694,3198
7.583063129000948,1957,1488,2775
7.585751843002072,2154,4095,4095
7.588443515000108,2414,4095,4095
7.591133270001592,2438,4095,4095
7.593824151001172,2470,4095,4095
7.596542781000608,2352,4095,4095
7.599236787002155,2116,3808,3135
7.601956251000956,2597,4095,4095
7.604648673001066,1885,4095,3455
7.607340595001006,2407,4095,4095
7.610031850002997,2352,4095,4095
7.612721564000822,1918,2823,3247
7.615412945000571,2482,4095,4095
7.618103492000955,2047,4095,3802
7.620792206002079,2396,4095,4095
7.623480753001786,1936,3216,3241
7.6261725920012395,2132,4095,3722
7.628861305001919,2414,4095,4095
7.631556561002071,2448,4095,4095
7.634252858002583,2478,4095,4095
7.63694332200248,2112,4095,4095
7.639633577000495,2640,4095,4095
7.64232341600291,2006,2625,2921
7.64501188000213,2096,4095,4095
7.647701885001879,2403,4095,4095
7.650392349001777,2342,4095,4095
7.653079604002414,1921,4095,4095
7.655770360001043,2485,4095,4095
7.65845924000314,2075,3671,3227
7.6611474540004565,2430,4095,4095
7.663836418003484,918,4095,3570
7.666528632002155,900,2800,3260
7.669218596001883,1753,4095,4095
7.671907726002246,2096,4095,4095
7.674597731001995,2341,4095,4095
7.677286862002802,1955,4095,3869
7.679981826000585,2643,4095,4095
7.682673664003232,2015,218,2522
7.68628896300288,1903,4095,2085
7.6889938860003895,2417,4095,4095
7.691725225002301,2449,4095,4095
7.694418188002601,2479,4095,4095
7.697110569002689,1951,4095,3481
7.699803074003285,2694,4095,4095
7.702493996002886,1994,951,2515
7.705187585001113,1873,4095,2219
7.707880424000905,2403,4095,4095
7.710571763000189,2335,4095,4095
7.713259685002413,2251,4095,4095
7.715947857002902,2480,4095,4095
7.7186378210026305,2084,3667,3199
7.72132620100092,2671,4095,4095
7.72401516500031,1917,3902,3230
7.726709254002344,1863,4095,3841
7.729400843003532,2416,4095,4095
7.732088723001652,1913,3154,2977
7.73477756200009,2480,4095,4095
7.737468067000009,1987,4095,3468
7.7401648230006685,2135,3217,3093
7.742857912002364,1973,2945,3250
7.74554745900241,1879,4095,4095
7.748240881002857,2410,4095,4095
7.750931720001972,2438,4095,4095
7.753623183001764,2359,4095,4095
7.756324147001578,2365,4095,4095
7.759014194001793,2101,4095,3138
7.761703991000104,2628,4095,4095
7.764395330003026,1915,4095,4095
7.767085211002268,2191,4095,4095
7.769773883002927,2418,4095,4095
7.7724624300026335,1914,305,2522
7.7751511440001195,2480,4095,4095
7.777838399000757,2018,4095,3687
7.780565905002732,2138,3007,3295
7.78326674300115,1950,2070,2943
7.785956666000857,1869,4095,4095
7.788644171003398,2416,4095,4095
7.791333802000736,2446,4095,4095
7.794024515002093,2471,4095,4095
7.7967143960013345,2081,4095,4095
7.799405485002353,2117,3760,2970
7.8020951980033715,2593,4095,4095
7.8047828290000325,1889,4095,3082
7.8074726260019816,2403,4095,4095
7.810161465000419,2337,4095,4095
7.81284897000296,1924,3347,3401
7.815536684000108,2480,4095,4095
7.818226231000153,2053,4095,3440
7.820912237002631,2558,4095,4095
7.823599700001068,1929,3107,3194
7.826289122000162,1872,4095,3854
7.828982211001858,2416,4095,4095
7.831671217001713,2446,4095,4095
7.834360097000172,2475,4095,4095
7.837042269002268,1945,4095,3492
7.8397306080005364,2123,4095,4095
7.84242115500092,2003,2555,2864
7.845109827001579,2327,4095,4095
7.84780124900135,2489,4095,4095
7.850490463002643,2511,4095,4095
7.853176719003386,3174,4095,4095
7.8558667240031355,4095,4095,4095
7.858556271003181,4095,3695,3250
7.861244860003353,4095,4095,4095
7.863934740002151,2931,3575,3203
7.866623371002788,2343,4095,2539
7.869311543003278,2582,4095,4095
7.872000298000785,2432,4095,4095
7.874687929001084,2406,4095,4095
7.877374768002483,1911,4095,3631
7.88006819000293,2427,4095,4095
7.882755403999909,1958,154,2443
7.885442534003232,1865,4095,4095
7.888131040002918,2406,4095,4095
7.89081975299996,2429,4095,4095
7.893544967002526,2297,4095,4095
7.896236639000563,2441,4095,4095
7.898928645001433,2096,3457,3032
7.901616900002409,2640,4095,4095
7.904308697001397,1906,4095,3699
7.906997036003304,1866,4095,4095
7.909684125002968,2417,4095,4095
7.912372130002041,1916,834,2481
7.915061177001917,2480,4095,4095
7.917748974999995,2005,3547,3319
7.920438605000527,2141,2559,3151
7.92313127700254,1957,2128,2980
7.92582103300083,1872,4095,2425
7.928541580000456,2411,4095,4095
7.931229877001897,2443,4095,4095
7.933944007003447,2403,4095,4095
7.936629388001165,2285,4095,4095
7.939318018001359,2112,3729,3094
7.942007232002652,2605,4095,4095
7.944694363002782,1883,4095,3184
7.947383243001241,2233,4095,4095
7.950073123000038,2326,4095,4095
7.952762754001014,1920,1739,2950
7.955457134001335,2432,4095,4095
7.958147348002967,2035,4095,3440
7.960833562003245,2123,4095,3870
7.963522859001387,1935,2698,3068
7.966211906001263,2062,4095,4095
7.968899370000145,2403,4095,4095
7.971587875003024,2437,4095,4095
7.974277256002097,2475,4095,4095
7.976964220000809,1947,4095,3638
7.979653392001637,2123,4095,4095
7.982348231002106,2018,3943,3810
7.985040694002237,1885,4095,2853
7.987732408000738,2407,4095,4095
7.990421330003301,2214,4095,4095
7.993108127000596,1957,4095,4095
7.995796341001551,2483,4095,4095
7.998500388002867,2069,3990,3246
8.001196769000671,2695,4095,4095
8.00388839900188,1922,3395,3216
8.006580405002751,1868,2512,3136
8.009269327001675,2420,4095,4095
8.011959291001403,2449,4095,4095
8.014648129003035,2479,4095,4095
8.017386593000992,1959,3990,3398
8.02010489100212,2542,4095,4095
8.022795979002694,1981,335,2431
8.025484860001598,1872,4095,2077
8.028173240003525,2375,4095,4095
8.030863579002471,2324,4095,4095
8.033551584001543,2224,4095,4095
8.03624092300015,2453,4095,4095
8.038931970000704,2096,2775,2826
8.041622392000136,2229,4095,4095
8.044316647999949,983,4095,4095
8.047007028002554,1054,4095,4095
8.049696576003043,1821,4095,4095
8.052388414002053,1622,1926,2694
8.055078920002416,2374,4095,4095
8.057767425001657,1998,4095,3521
8.060458806001407,2161,2597,3120
8.063149519002764,1995,1265,2747
8.06583752500228,1893,4095,2330
8.06855557200106,2423,4095,4095
8.07124628600286,2447,4095,4095
8.07395929100312,2384,4095,4095
8.076649214002828,2299,4095,4095
8.079339344003529,2107,3216,2925
8.082039933000488,2605,4095,4095
8.084731022001506,1895,4095,3302
8.08742373500354,2311,4095,4095
8.090115283001069,2337,4095,4095
8.092804038002214,1918,2501,3185
8.09747521400277,2481,4095,4095
8.100173886003176,2508,4095,4095
8.102867392000917,1983,210,2465
8.105558772000222,1875,3763,1937
8.108251569003187,2411,4095,4095
8.110941450002429,2302,4095,4095
8.113632455002517,2320,4095,4095
8.116324586000701,2437,4095,4095
8.119014008003433,2091,3328,3002
8.121704722001596,2640,4095,4095
8.124395602000732,1905,4095,3470
8.12708556600046,1961,4095,4095
8.129791321000084,2421,4095,4095
8.132509992999985,1915,565,2478
8.135218707000604,2480,4095,4095
8.137949088002642,2021,3477,3269
8.140640385001461,2128,2545,3131
8.143328432000999,1949,2416,3039
8.146016563001467,1871,4095,2319
8.148705651001364,2414,4095,4095
8.151394823002192,2467,4095,4095
8.1540847460019,2448,4095,4095
8.156773626000358,2174,4095,4095
8.159463130999939,2111,3104,2878
8.162151554002776,2595,4095,4095
8.164838017000875,1892,4095,3239
8.1675275230009,2357,4095,4095
8.170217820003018,2346,4095,4095
8.172908700002154,1918,1879,2990
8.175599373000296,2481,4095,4095
8.178290170002583,2037,4095,3726
8.180998050000198,2125,4095,4095
8.183689639001386,1935,2743,3082
8.18638097800067,2324,4095,4095
8.18906915000116,2416,4095,4095
8.191759947003447,2448,4095,4095
8.194450536000659,2475,4095,4095
8.19713750000301,1949,4095,3499
8.199826588002907,2118,4095,4095
8.202515219003544,2002,2780,2928
8.205205224003294,1885,4095,2422
8.207897313001013,2413,4095,4095
8.210587027002475,2295,4095,4095
8.213276616002986,1920,4095,4095
8.215965079001762,2486,4095,4095
8.2186545020013,2064,3306,3090
8.221342840002762,2677,4095,4095
8.224031929003104,1923,3709,3274
8.22672176800188,1920,2928,3184
8.22941064800034,2713,4095,4095
8.232103279002331,3435,4095,4095
8.234793701001763,4095,4095,4095
8.237480748000962,3952,4095,3685
8.240167378000478,4095,4095,4095
8.242854592001095,3387,377,2432
8.245540806001372,2623,4037,1968
8.24822935300108,2763,4095,4095
8.250918109002669,2203,4095,4095
8.253606406000472,2224,4095,4095
8.25629720300276,2416,4095,4095
8.258987583001726,2031,3162,3046
8.26167063000321,2608,4095,4095
8.2643603860015,1893,3475,3169
8.267054475003533,1863,4095,4095
8.269743813001696,2414,4095,4095
8.272434152000642,1914,1802,2640
8.275124491003226,2480,4095,4095
8.277813872002298,2026,3323,3219
8.280532960001437,2133,2928,3117
8.28323117400214,1963,973,2650
8.285945513001934,1878,4095,2960
8.288635143002466,2409,4095,4095
8.29132585700063,2442,4095,4095
8.294014904000505,2303,4095,4095
8.296747827000218,2269,4095,4095
8.299440582002717,2103,4095,3255
8.302130421001493,2602,4095,4095
8.304820635003125,1895,3838,3059
8.307512557003065,2271,4095,4095
8.310201687003428,2379,4095,4095
8.312889026001358,1917,2402,3153
8.315577448000113,2481,4095,4095
8.31826720400204,2032,3376,3186
8.320953376001853,2119,4095,3827
8.323641048002173,1937,2143,2911
8.32632909500171,1871,4095,4095
8.329015684001206,2416,4095,4095
8.33170543900269,2448,4095,4095
8.33454823700231,2421,4095,4095
8.337242450001213,1947,4095,3541
8.339931456001068,2117,4095,4095
8.342628461003187,1995,1919,2682
8.34531788300228,1887,4095,3566
8.34800468100002,2405,4095,4095
8.350697394002054,2068,4095,4095
8.353381150001951,1922,4095,3856
8.356081197001913,2386,4095,4095
8.358772994000901,2074,3243,2962
8.361463666002237,2671,4095,4095
8.364154838000104,1918,4095,3287
8.366846594002709,1869,2605,3179
8.369535933001316,2419,4095,4095
8.372226563002187,2451,4095,4095
8.374914735002676,2473,4095,4095
8.37760361600158,1965,2481,3024
8.380298829000822,2337,4095,4095
8.382994543000677,1977,411,2559
8.385681549003493,1875,4095,3770
8.38836817900301,2410,4095,4095
8.391062143000454,2126,4095,4095
8.393754315002298,2295,4095,4095
8.396446529000968,2427,4095,4095
8.399138409000443,2091,2513,2768
8.40182937300051,2631,4095,4095
8.404550836999988,1907,4095,4095
8.40724450900234,1872,4095,4095
8.409960265002155,2428,4095,4095
8.412649103000149,1915,964,2492
8.415341234001971,2277,4095,4095
8.418033323003328,2305,4095,4095
8.420721620001132,2117,2453,3139
8.423411042000225,1122,1885,2837
8.426100714001223,928,4095,2209
8.42879171900131,1718,4095,4095
8.431482225001673,2043,4095,4095
8.434171980003157,2219,4095,4095
8.436860694000643,2139,4095,4095
8.439555950000795,2125,3407,2944
8.442244163001305,2629,4095,4095
8.444934335002472,1921,4095,3195
8.447623549000127,2391,4095,4095
8.450313721001294,2340,4095,4095
8.453001977002714,1920,1777,2945
8.455692482002632,2469,4095,4095
8.458382279000944,2037,4095,3577
8.46107270200082,2126,4095,4095
8.463761915001669,1936,2303,2960
8.46644987900072,1871,4095,4095
8.469136968000385,2418,4095,4095
8.471826890003285,2447,4095,4095
8.474517312002718,2478,4095,4095
8.47720619300162,1947,4095,3545
8.479895948003104,2112,4095,2684
8.48258791200351,2134,4095,3989
8.48527579200163,1882,4095,2848
8.487966839002183,2410,4095,4095
8.490655803001573,2217,4095,4095
8.493345309001597,1921,4095,3712
8.496035481002764,2448,4095,4095
8.498760861002665,2064,3997,3250
8.501451658001315,2677,4095,4095
8.504143539001234,1921,3392,3250
8.506837336000899,1871,2435,3105
8.509525675002806,2418,4095,4095
8.512216472001455,2448,4095,4095
8.514905769003235,2476,4095,4095
8.517593024000234,1959,3707,3341
8.520282822002628,2291,4095,4095
8.5229716190006,1982,251,2419
8.52565899900219,1878,4095,2112
8.528348630003165,2413,4095,4095
8.531038468001498,1901,4095,4095
8.533730891002051,1957,4095,4095
8.53642435400252,2128,4095,4095
8.539115401003073,2081,3923,3328
8.541798615002335,2640,4095,4095
8.544488412000646,1910,4095,3414
8.547184751001623,1870,4095,3832
8.549901382000826,2430,4095,4095
8.552594512002543,1918,2129,2710
8.555284559002757,2448,4095,4095
8.557978648001153,1999,3890,3367
8.56066698700306,2119,2816,3083
8.563356534003105,1965,895,2633
8.566047123000317,1878,4095,2159
8.568734878001123,2422,4095,4095
8.571424592002586,2451,4095,4095
8.574114431001362,2373,4095,4095
8.576804436001112,2032,4095,4095
8.579493817000184,2087,2251,2439
8.582184364000568,2599,4095,4095
8.584878369001672,1894,4095,3497
8.587569291001273,2099,4095,4095
8.59026104700024,2337,4095,4095
8.592948552002781,1915,599,2639
8.595642308002425,2423,4095,4095
8.59833256300044,2029,2960,3122
8.601019819001522,2128,4095,3507
8.603707782000129,1943,3195,3248
8.60640224600138,1887,4095,4095
8.609090210000431,2599,4095,4095
8.61178000700238,3283,4095,4095
8.614471638000396,4003,4095,4095
8.617159351000737,4095,4095,4095
8.619847649002622,4095,3131,2841
8.622538071002054,4095,4095,4095
8.625228576001973,2800,4095,2797
8.627918540001701,2918,4095,4095
8.630617920000077,2378,4095,4095
8.63330842600044,1889,3180,3311
8.636001265000232,2411,4095,4095
8.638687395003217,1978,3897,3301
8.641377692001697,2512,4095,4095
8.644065031003265,1907,3259,3243
8.646753411001555,1869,2748,3055
8.649442834001093,2418,4095,4095
8.652132839000842,2451,4095,4095
8.654824636003468,2423,4095,4095
8.657516725001187,1954,3287,3215
8.660208647001127,2192,4095,4095
8.662899778002611,1990,1433,2628
8.665586783001345,2089,4095,4095
8.668275830001221,2416,4095,4095
8.670965836001415,2218,4095,4095
8.6736529660011,2307,4095,4095
8.676343305000046,2417,4095,4095
8.679032060001191,2069,3295,2943
8.681720481999946,2659,4095,4095
8.684413738003059,1919,2971,3085
8.68710595200173,1872,3094,3278
8.689793332003319,2423,4095,4095
8.692482713002391,2195,4095,3875
8.695171968000068,2479,4095,4095
8.697859390002122,1981,3569,3344
8.700618646002113,2218,4095,4095
8.703314026002772,1969,320,2518
8.706007365002733,1875,4010,2012
8.708695787001488,2375,4095,4095
8.711387959003332,2440,4095,4095
8.71407871500196,2329,4095,4095
8.71676792800281,2304,4095,4095
8.71945901700019,2094,2128,2624
8.72214881400214,2613,4095,4095
8.724835736000387,2084,4095,4095
8.727525950002018,2128,4095,4095
8.73021453900219,2390,4095,4095
8.73290054500103,1918,735,2676
8.735594842000864,2480,4095,4095
8.738281555000867,2011,3266,3177
8.740967686000658,2125,3019,3265
8.743654316000175,1947,1183,2699
8.746347655000136,1874,4095,2196
8.749037536003016,2416,4095,4095
8.751727541002765,2448,4095,4095
8.754418046002684,2423,4095,4095
8.757108219000656,1947,4095,3545
8.759798891001992,2103,2422,2220
8.762490938002884,2559,4095,4095
8.765224318001856,2254,4095,4095
8.76791382400188,2326,4095,4095
8.770603621000191,2256,4095,4095
8.773287501000596,1921,2406,3135
8.775976423999964,2447,4095,4095
8.77866926200295,2041,4095,3469
8.781357518000732,2325,4095,4095
8.78405256500264,1932,2587,3056
8.786743154003489,2162,4095,3872
8.789432617002603,2416,4095,4095
8.792121706002945,2454,4095,4095
8.794810795003286,2451,4095,4095
8.797501176002697,1907,4095,3430
8.800191389000247,2112,4095,4095
8.802881436000462,1301,1881,2727
8.805567692001205,897,4095,2169
8.808262531001674,1616,4095,4095
8.810953953001444,1680,4095,4095
8.813642542001617,1712,4095,3583
8.816331589001493,2419,4095,4095
8.819021303002955,2166,4095,4095
8.82170893300281,2699,4095,4095
8.824396897001861,1949,2995,3157
8.827085486002034,1894,3349,3422
8.829772991000937,2432,4095,4095
8.832461246001913,2438,4095,4095
8.835148669000773,2479,4095,4095
8.837839924002765,1968,3152,3239
8.840560846001608,2293,4095,4095
8.843248685003346,1974,199,2432
8.845958607002103,1877,3241,1861
8.848649529001705,2413,4095,4095
8.851337493000756,1899,4095,4095
8.85402512300061,2282,4095,4095
8.856713421002496,2442,4095,4095
8.859407176001696,2085,2989,2896
8.86209851500098,2624,4095,4095
8.8647859790035,1906,4095,3255
8.867477359002805,1872,4095,4095
8.870166115000757,2429,4095,4095
8.872853120003128,1919,935,2490
8.87554291700144,2443,4095,4095
8.878234381001676,2000,4095,3472
8.880923678003455,2126,2657,3100
8.883623434001493,1950,1297,2750
8.886314856001263,1875,4095,2324
8.889002819003508,2418,4095,4095
8.891691825003363,2448,4095,4095
8.894379705001484,2356,4095,4095
8.897067086003517,2304,4095,4095
8.899756841001363,2098,2768,2805
8.902475722003146,2597,4095,4095
8.905166394000844,2021,4095,4095
8.907863483000256,2288,4095,4095
8.910555363003368,2320,4095,4095
8.913243285001954,1918,1770,2976
8.915932791001978,2347,4095,4095
8.918621546003124,2032,2982,3008
8.921312260001287,2128,4095,3791
8.924002432002453,1937,2755,3088
8.926692479002668,1874,4095,2395
8.929379818000598,2419,4095,4095
8.932067948000622,2451,4095,4095
8.934756037000625,2479,4095,4095
8.937446918000205,2089,4095,4095
8.94013496500338,2111,4095,4095
8.942821345000993,2027,4095,3901
8.945508434000658,1889,3917,2638
8.948206106000725,2411,4095,4095
8.950893445002293,2134,4095,4095
8.953581534002296,1919,4095,3879
8.95627874800266,2462,4095,4095
8.958968045000802,2061,3681,3183
8.96165592500256,2673,4095,4095
8.964344056003029,1922,3513,3299
8.967032978001953,1872,2647,3137
8.969720858000073,2425,4095,4095
8.972409780002636,2451,4095,4095
8.975099869003316,2467,4095,4095
8.977788750002219,1957,3888,3385
8.980476755001291,2553,4095,4095
8.983166927002458,1984,734,2499
8.985859224001615,1883,3441,1936
8.98858189600287,2482,4095,4095
8.991272319002746,2559,4095,4095
8.993963282002369,3146,4095,4095
8.996652413003176,4045,4095,4095
8.999343043000408,3915,3335,3211
9.00203196500297,4095,4095,4095
9.004721471002995,2785,2875,2886
9.007414226001856,2289,4095,4095
9.010102398002346,2559,4095,4095
9.012788904001354,1904,2346,2766
9.015479118002986,2423,4095,4095
9.018212873001175,1939,4095,3920
9.020927462002874,2095,3466,3138
9.023618842002179,1937,1583,2800
9.026308890002838,1871,3717,2129
9.028996645000007,2416,4095,4095
9.031685734000348,2435,4095,4095
9.034373906000837,2382,4095,4095
9.037068578003527,2331,4095,4095
9.039764750003087,2101,2169,2645
9.042451839002752,2605,4095,4095
9.045136636003008,1904,2902,2895
9.047823975000938,2110,4095,4095
9.050511564000772,2239,4095,4095
9.053197694000119,1917,2282,3129
9.05588549100139,2484,4095,4095
9.058577622003213,2027,3124,3162
9.061265252003068,2121,3919,3494
9.06395534100011,1942,2243,2986
9.06664543000079,1878,4095,4095
9.069333310002548,2417,4095,4095
9.07202289900306,2451,4095,4095
9.074712946003274,2382,4095,4095
9.077400285001204,1947,4095,3551
9.080089374001545,2105,2388,2207
9.082777129002352,2510,4095,4095
9.085471468002652,2437,4095,4095
9.088161057003163,2415,4095,4095
9.0908493120005,2307,4095,4095
9.093535818003147,1919,1712,2882
9.096224490000168,2132,4095,4095
9.098912578003365,2047,4095,3536
9.101601334001316,2411,4095,4095
9.104766299002222,1929,4095,3483
9.107502221002505,2166,4095,3841
9.110232476003148,2427,4095,4095
9.112958482000977,1915,1482,2553
9.115687154000625,2480,4095,4095
9.11841570100296,2001,3397,3227
9.121140915001888,2125,2455,3104
9.123867962000077,1954,1716,2850
9.126595801000803,1872,4095,2346
9.129321307002101,2417,4095,4095
9.132048021001538,2448,4095,4095
9.134776818002138,2478,4095,4095
9.137502948000474,1939,4095,3690
9.140282329000911,2112,3425,2595
9.143039543003397,2008,3941,3798
9.14576713200222,1887,4095,2729
9.148494596000091,2417,4095,4095
9.151221643001918,2011,4095,4095
9.153992065002967,1922,4095,4095
9.156735029002448,2459,4095,4095
9.159465826000087,2082,3408,3088
9.1621943320024,2642,4095,4095
9.16492067100262,1913,3952,3153
9.16764913500083,1915,4095,4095
9.170377223003015,2429,4095,4095
9.173101562002557,1915,835,2474
9.17583027600267,2480,4095,4095
9.178557865001494,2013,4095,3390
9.181282496003405,2103,2958,3287
9.184009293003328,1079,3185,3194
9.186760673001118,1307,4095,4095
9.189486596002098,1737,4095,4095
9.19221493400255,2077,4095,4095
9.19494285700057,2233,4095,4095
9.197669320001296,1966,4095,4095
9.200399743000162,2141,4095,4095
9.203127582000889,2037,2944,2979
9.205852795003011,1907,4095,2418
9.208631093002623,2425,4095,4095
9.211359723001806,2015,4095,4095
9.21408793700175,2077,4095,4095
9.216812734000996,2449,4095,4095
9.219540323003457,2084,3009,2923
9.222277954002493,2640,4095,4095
9.225002501003473,1910,4095,3408
9.227731298000435,1872,4095,4095
9.2304601370015,2430,4095,4095
9.233187309000641,1920,321,2526
9.235915731002024,2448,4095,4095
9.238649487000657,2003,2513,2978
9.241426784003124,2128,2800,3216
9.244184415001655,1949,2731,3090
9.246930420002172,1873,4095,4095
9.249663051003154,2417,4095,4095
9.252402348000032,2453,4095,4095
9.255142519999936,2481,4095,4095
9.257921443000669,1954,3999,3386
9.260665657002392,2371,4095,4095
9.263407079000899,1984,487,2432
9.266145209003298,1879,4095,2121
9.268876548001572,2407,4095,4095
9.271613137003442,2006,4095,4095
9.274353809003514,2272,4095,4095
9.277092815002106,2027,4095,4095
9.279881862003094,2095,3105,2639
9.282659243002854,2609,4095,4095
9.285426165002718,1899,2992,2946
9.288183879001735,2195,4095,4095
9.29092517600293,2208,4095,4095
9.293657057001838,1910,2298,3145
9.296393104003073,2464,4095,4095
9.29912894300287,2173,4095,4095
9.301860990002751,2675,4095,4095
9.305171372001496,2040,4095,4095
9.307886586000677,1872,3120,3349
9.310582758000237,2402,4095,4095
9.313278847002948,1918,839,2704
9.31597718500052,2465,4095,4095
9.31866856600027,2020,3136,3138
9.321360155001457,2128,3173,3262
9.324051368002984,1949,1910,2885
9.326744791000237,1873,3824,2313
9.329435421001108,2417,4095,4095
9.332128551002825,2447,4095,4095
9.334822931999952,2454,4095,4095
9.337513437003508,1942,4095,3749
9.340220901001885,2109,3310,2535
9.34291661500174,2521,4095,4095
9.345605454000179,1887,4095,2905
9.348296834003122,2415,4095,4095
9.350996881003084,2219,4095,4095
9.353690220003045,1920,3532,3482
9.356380726003408,2467,4095,4095
9.359088273002271,2055,3789,3251
9.361785153003439,2612,4095,4095
9.364481367003464,1927,3463,3315
9.367176289000781,1887,2435,2996
9.369867003002582,2559,4095,4095
9.372589009002695,3043,4095,4095
9.375282513999991,3408,4095,4095
9.377979978002259,3322,4095,3659
9.380675567001163,4095,4095,4095
9.383370322000701,3225,1201,2550
9.386083536002843,2979,4095,4095
9.388787666001008,2736,4095,4095
9.391484630003106,2106,4095,4095
9.394180344002962,2224,4095,4095
9.396873099001823,2273,4095,4095
9.399567313001171,2033,3907,3057
9.402261319002719,2610,4095,4095
9.40495174100215,1904,3631,3158
9.40765295500023,1869,4095,4095
9.410356085001695,2426,4095,4095
9.413048257003538,1916,1722,2623
9.415744888003246,2485,4095,4095
9.41844039300122,2000,3795,3363
9.421131857001456,2128,2800,3098
9.423825862002559,1963,1392,2777
9.426519826000003,1875,4095,2225
9.429211832000874,2418,4095,4095
9.431905921002908,2449,4095,4095
9.434599426000204,2405,4095,4095
9.437292806000187,2285,4095,4095
9.439985270000761,2097,3152,2897
9.442681776003155,2590,4095,4095
9.445377573003498,1903,4095,3223
9.448065120002866,2224,4095,4095
9.450758625000162,2363,4095,4095
9.45345446400097,1930,1566,2914
9.456146303000423,2369,4095,4095
9.458847350000724,2031,3479,3214
9.461542439003097,2122,3939,3655
9.464236736002931,1943,2319,2988
9.466932033003104,1873,4095,4095
9.469622955002706,2419,4095,4095
9.472317711002688,2448,4095,4095
9.475017175001994,2474,4095,4095
9.477705763001723,1945,4083,3408
9.480628103003255,2112,4013,2592
9.48332181600199,1995,1365,2589
9.486042155000177,1882,4095,2225
9.488743202000478,2415,4095,4095
9.491437625001709,2016,4095,4095
9.494128297003044,1922,4095,4095
9.496817594001186,2447,4095,4095
9.499509641002078,2075,3099,2946
9.50219935500354,2653,4095,4095
9.504925777000608,1919,4095,3318
9.507622449000337,1872,4095,3566
9.510315996001736,2427,4095,4095
9.513004043001274,1917,2759,2864
9.51569479900354,2479,4095,4095
9.518384846000117,1987,3309,3216
9.521072810002806,2126,3399,3168
9.523763815002894,1967,979,2673
9.526453737002157,1876,4095,2240
9.529142368002795,2417,4095,4095
9.531831373002206,2448,4095,4095
9.534520629000326,2348,4095,4095
9.537210426002275,2367,4095,4095
9.53990097300266,2094,2992,2887
9.54259372800152,2607,4095,4095
9.545282734001376,1904,4095,3254
9.547975823003071,1946,4095,4095
9.55066278600134,2432,4095,4095
9.55334995800149,1918,511,2645
9.556040756000584,2483,4095,4095
9.558731219000038,2015,3063,3165
9.562303977003467,2103,2671,3174
9.565001357001165,1092,2188,2935
9.567696488000365,995,4095,3764
9.570390118002251,1840,4095,4095
9.573080624002614,1625,2414,2771
9.575771546002215,2370,4095,4095
9.578460926000844,1984,3308,3238
9.581148432000191,2153,3008,3094
9.583838520000427,1999,1040,2698
9.586539234001975,1904,4095,2159
9.589229115001217,2433,4095,4095
9.591922245002934,2454,4095,4095
9.594617501003086,2384,4095,4095
9.597305048002454,2303,4095,4095
9.599994428001082,2096,2711,2778
9.60268601700227,2606,4095,4095
9.605376397001237,1904,4095,3316
9.608068403002108,2039,4095,4095
9.610761033000017,2374,4095,4095
9.613449330001458,1920,1007,2752
9.616140794001694,2486,4095,4095
9.618830258001253,2017,3085,3175
9.621519805001299,2127,3110,3294
9.62421022700073,1946,2609,3088
9.626900107999973,1874,4095,2447
9.629587696003,2416,4095,4095
9.632279244000529,2451,4095,4095
9.634970791001251,2457,4095,4095
9.637661213000683,1943,4095,3540
9.640351927002484,2109,3113,2357
9.643045307002467,2559,4095,4095
9.645735478999995,1899,4095,3056
9.648427651001839,2403,4095,4095
9.651117323002836,2271,4095,4095
9.653805496000132,1920,3399,3376
9.656506876002823,2482,4095,4095
9.65919975700308,2043,3216,3119
9.661923012001353,2516,4095,4095
9.66461805900326,1933,3306,3221
9.66731339800026,1874,3132,3008
9.67000402800113,2426,4095,4095
9.672692492000351,2453,4095,4095
9.67538174800211,2477,4095,4095
9.678071711001394,1947,3381,3267
9.680760967003152,2480,4095,4095
9.683450389002246,1994,1056,2511
9.686150270001235,1888,4095,2256
9.68883823300348,2418,4095,4095
9.691528114002722,1968,4095,4095
9.694217328000377,1922,4095,4095
9.69690891600112,2462,4095,4095
9.699600505002309,2065,3061,2928
9.702288301999943,2661,4095,4095
9.705014683000627,1920,4095,3377
9.707718647001457,1873,3971,3551
9.71041040199998,2432,4095,4095
9.713098366002669,1915,3415,3527
9.715788996003539,2480,4095,4095
9.718479252001998,1984,3169,3226
9.72116754900344,2123,3667,3207
9.723856679000164,1968,993,2692
9.726546143003361,1879,4095,2262
9.729240524000488,2416,4095,4095
9.73193248700045,2448,4095,4095
9.734628368001722,2379,4095,4095
9.73731720700016,2367,4095,4095
9.74001321200194,2087,2881,2832
9.742711051003425,2613,4095,4095
9.74539997300235,1905,4095,3433
9.748093853002501,2032,4095,4095
9.750782566999987,2607,4095,4095
9.753470781000942,2362,582,2650
9.756161995002913,3511,4095,4095
