time,y1,y2,y3
0.0060847340000691474,3424,449,417
0.008849226999700477,3290,1488,521
0.011581220000152825,2961,913,432
0.014313046000097529,2765,363,274
0.017044163999344164,2738,1876,621
0.01977440700011357,2918,794,443
0.022502899999381043,3206,0,185
0.02523505999943154,3447,32,117
0.028002760999697784,3440,833,318
0.030729878999409266,3178,2379,707
0.033460705999459606,2917,195,317
0.03619907400025113,2810,1502,546
0.038932441999349976,2870,1833,689
0.04166397599965421,3054,38,272
0.04439230299976771,3254,206,181
0.04712000400013494,3303,992,369
0.049849121999614,3099,1921,640
0.05258257300010882,2848,33,239
0.05531056600011652,2706,256,177
0.0580405589998918,2714,2021,627
0.060770176999540126,2887,336,308
0.06349721199967462,3134,19,147
0.06676991199947224,3261,605,267
0.0694721549998576,3127,1311,445
0.07216593999964971,2839,131,186
0.07485814099982235,2679,133,144
0.07754784299959283,2656,2112,634
0.0802375019993633,2799,737,401
0.0829269949999798,2997,383,270
0.08561823899981391,3139,443,250
0.08830989799935196,3055,1305,445
0.09100047499941866,2832,640,306
0.09369205099937972,2646,286,205
0.09638491900022927,2578,1840,597
0.09907766200012702,2626,1897,640
0.10177311400002509,2784,23,266
0.10446385700015526,2944,145,167
0.10715176699977746,2983,1068,345
0.10984392599948478,2832,1914,587
0.11253512799976306,2610,131,239
0.1152247879999777,2458,381,229
0.11791765599991777,2432,2411,727
0.12060835699958261,2515,626,424
0.12329776699971262,2683,50,194
0.1259886349998851,2797,784,307
0.12868066999999428,2755,1264,430
0.13137374599955365,2605,1013,419
0.13406569800008583,2453,378,269
0.1367576080001527,2404,2135,669
0.1394479760001559,2432,1031,495
0.14213805199960916,2519,0,195
0.1448293779994856,2610,0,102
0.14751791300022887,2642,1168,330
0.15020990599987272,2454,2377,703
0.15289956600008736,2280,26,272
0.1555888929997309,2163,1232,457
0.15828046899969195,2143,1814,659
0.16097008699944126,2204,201,293
0.16366199699950812,2350,304,189
0.16635465699982888,2461,545,237
0.16904569100006483,2453,784,316
0.17173576799996226,2358,592,259
0.17442459399990184,2240,762,309
0.17711358699943958,2163,1971,640
0.1798020810001617,2131,683,411
0.18249628200010193,2191,0,166
0.1851876499995342,2265,95,113
0.18787701800010836,2261,381,153
0.19060146999981953,2190,2272,626
0.1932880459999069,2085,274,305
0.19600262199946883,2007,1667,563
0.19869578199995885,1936,1852,657
0.20138827499977197,1879,81,267
0.20407822699962708,1934,0,112
0.20676972000001115,1946,687,227
0.20946079599980294,1967,1264,447
0.2121520809996582,1931,496,281
0.21485444900008588,1840,697,304
0.21754569199947582,1725,1999,631
0.22023522699964815,1590,769,445
0.2229235949998838,1529,9,176
0.22561292099999264,1562,230,154
0.22830608099957317,1588,691,234
0.23099632399953407,1589,999,318
0.23368644199945265,1520,317,215
0.23637772700021742,1415,1296,429
0.23906721999992442,1249,1662,561
0.241758629999822,1135,74,233
0.24444829000003665,1168,511,241
0.24713770000016666,1215,2033,601
0.24982760900002177,1239,935,471
0.2525185189997501,1210,240,255
0.25520734600013384,1105,114,165
0.2579017139996722,970,1764,543
0.26059303999954864,815,618,362
0.26328311699944607,771,207,189
0.26597485999991477,867,80,114
0.26866751899979135,963,555,227
0.27135905399973126,992,1115,364
0.2740489219995652,947,714,331
0.2767394989996319,885,1504,531
0.2794283249995715,821,656,388
0.28211810999982845,842,304,227
0.2848068949997469,958,18,115
0.2874950549994537,1065,357,146
0.2901860479996685,1137,2540,706
0.29287758200007374,1114,21,262
0.29556899199997133,1015,670,315
0.2982604019998689,885,1954,647
0.3009541450001052,802,1109,480
0.30364334600017173,871,0,193
0.30633488100011164,1001,1095,344
0.3090260829994804,1067,851,322
0.31171686699963175,1038,324,203
0.3144082359995082,944,451,220
0.3171008539993636,851,2496,743
0.3197906380000859,790,562,414
0.32248158999937004,823,974,401
0.32517449999977543,908,561,291
0.3278655759995672,943,546,240
0.33058856899970124,880,2439,695
0.3332814369996413,753,197,317
0.3359965549998378,641,1642,565
0.33868854799948167,575,2256,777
0.3413801249998869,613,65,313
0.3440716179993615,737,205,186
0.34676098599993566,816,400,178
0.3494536869993681,766,1084,368
0.3521443889994771,598,64,170
0.35484438200001023,459,625,241
0.3575377919996754,435,2199,682
0.36022970100020757,563,505,430
0.3629188200002318,801,122,203
0.3656093959998543,975,134,121
0.3683005969996884,954,464,163
0.37098659000002954,749,1199,338
0.37367949999952543,503,550,279
0.3763715349996346,399,1808,549
0.3790622779997648,479,2281,780
0.3817505209999581,733,0,299
0.3844415140001729,1040,52,150
0.3871324239999012,1190,982,320
0.3898258760000317,1056,2234,688
0.3925196189993585,800,274,303
0.3952100279993829,640,1023,387
0.39790343799995753,657,2241,735
0.4005940560000454,908,441,422
0.4032823829993504,1233,0,166
0.4059735009996075,1475,395,192
0.40866891099994973,1423,815,291
0.41136031999940315,1130,1044,347
0.4140525630000411,875,498,261
0.41674401499949454,786,997,401
0.4194361330000902,981,1135,416
0.4221290429995861,1350,283,238
0.42482191099952615,1649,479,224
0.4275124039995717,1715,113,112
0.43020377199991344,1451,1955,554
0.4328967229994305,1118,0,201
0.4355855919993701,957,957,366
0.4382774599998811,1056,1569,563
0.4409697029996096,1450,445,304
0.4436617789997399,1846,6,149
0.4463531889996375,2015,44,83
0.44904413999938697,1783,371,128
0.4517379669996444,1296,649,210
0.4544290429994362,934,21,103
0.45711912000024313,833,1198,395
0.45980861299995013,1114,793,353
0.4625100229995951,1573,0,160
0.46521109900004376,1840,162,144
0.46789792500021576,1757,39,75
0.4706702100002076,1277,1591,445
0.47337237000010646,802,1073,441
0.47606615499989857,641,225,275
0.47877673099992535,908,1313,475
0.48147943200001464,1519,93,227
0.4841713420000815,2021,45,143
0.4868622099993445,2207,53,86
0.4895567449993905,1889,783,297
0.4922492380001131,1359,590,256
0.4949392309999894,1033,0,100
0.4976312239996332,1050,990,351
0.5003225509999538,1542,978,419
0.5030126269994071,2099,256,251
0.505703703999643,2371,64,134
0.5083948629999213,2180,224,118
0.511085815000115,1590,1502,400
0.5137764330002028,1126,0,163
0.5164704680000796,990,1004,346
0.5191637939997236,1399,995,385
0.5218527039996843,2131,519,299
0.5245459469997513,2611,0,140
0.5272368979995008,2672,252,127
0.5299271409994617,2134,1724,505
0.5326174259998879,1477,318,242
0.5353074189997642,1206,201,163
0.537999328999831,1423,1363,464
0.540689489000215,2196,500,342
0.543378689999372,2959,255,238
0.5460696829995868,3364,79,139
0.5487688849998449,2948,381,185
0.5514599609996367,2019,1089,315
0.5541506210001899,1262,269,190
0.5568442809999397,986,1815,560
0.5595371489998797,1419,998,471
0.5622283089996927,2158,27,219
0.5649187600001824,2615,3,113
0.5676078779997624,2541,182,97
0.5702994960001888,1809,2021,549
0.5729895730000862,1060,0,176
0.5756791489993702,769,469,234
0.5783684339994579,1102,1498,533
0.5810610939997787,2010,453,335
0.5837527120002051,2773,0,163
0.5864449129994682,3115,214,139
0.5891509479997694,2641,190,109
0.5918368989996452,1767,835,250
0.5945291429998179,1219,465,230
0.597222802000033,1191,1697,560
0.599947087000146,1914,721,423
0.6026381629999378,2807,0,201
0.6053265319997081,3416,80,139
0.608017149999796,3254,414,169
0.6107058509996932,2359,1808,501
0.6133938439998019,1552,38,177
0.6160825460001433,1241,1248,421
0.6187697889999981,1651,1927,674
0.621460114999536,2608,31,298
0.6241529829994761,3440,221,213
0.6268420599999445,3788,1205,480
0.629532177999863,2917,946,431
0.6322215879999931,1911,336,211
0.6349158719995103,1373,288,173
0.6376075319994925,1531,1263,448
0.6402978589994746,2480,491,347
0.6429886850000912,3602,133,205
0.6456804700001157,4095,69,127
0.6483700459993997,3822,323,144
0.6510595809995721,2547,1434,358
0.6537514490000831,1675,238,160
0.6564420670001709,1399,1392,448
0.6591318519995184,1995,1293,551
0.661821969999437,3047,144,301
0.6645127129995672,4095,0,148
0.6671967060001407,4095,415,182
0.6699306159998741,3237,1733,538
0.6726264009994338,2261,295,238
0.6753210599999875,1766,704,243
0.6780123449998428,1953,1505,522
0.6807049629996982,2859,791,461
0.6833954559997437,4050,0,223
0.6860843659997045,4095,87,131
0.6887754429999404,3839,534,227
0.6914627269998164,2651,1096,336
0.6941538040000523,1943,213,176
0.6968424639999284,1776,1282,449
0.699532581999847,2367,683,368
0.702221991999977,3377,373,315
0.7049115680001705,4095,0,154
0.7076021029997719,4095,279,153
0.7102948040001138,3225,1747,560
0.7129840469997362,2349,309,256
0.7156727069996123,1917,346,229
0.7183623249993616,2123,1811,598
0.7210537350001687,2957,592,379
0.7237404359993889,4044,0,177
0.7264320129997941,4095,274,164
0.7291223809997973,3681,496,176
0.7318157489999066,2722,507,205
0.7345060339994234,2240,511,231
0.7371962769993843,2209,1572,538
0.7398859369995989,2815,624,394
0.7426052629998594,3798,10,195
0.7452972979999686,4095,0,112
0.7480082490001223,4095,93,80
0.7506971169996177,3220,2461,663
0.7533872349995363,2510,0,224
0.7560783949993493,2240,1140,411
0.7587674299993523,2507,1316,510
0.7614574230001381,3269,210,272
0.7641484579999087,4095,0,137
0.7668369089997213,4095,682,282
0.7695272359997034,3667,947,410
0.7722204789997704,2775,159,176
0.7749102640000274,2290,843,305
0.7776010070001576,2213,1819,609
0.7802916250002454,2743,590,398
0.7829764509997403,3485,69,207
0.7856683609998072,4095,183,173
0.7883591869995143,3895,592,230
0.7910513469996658,3008,1961,531
0.7937423399998806,2416,144,240
0.796432791999905,2147,1650,546
0.7991215759993793,2367,1738,689
0.8018109449994881,2995,528,426
0.8045001039999988,3600,352,273
0.8071906389996002,3759,483,246
0.8098805909994553,3138,1710,570
0.8125690420001774,2533,54,207
0.8152577849996305,2219,337,197
0.8179476529994645,2233,1865,579
0.8206378959994254,2669,912,477
0.8233262229996399,3183,1045,496
0.8260158409993892,3506,224,260
0.8287053340000057,3313,911,381
0.8313940769994588,2768,1343,446
0.8340836540000964,2325,486,300
0.8367746469994017,2085,1946,671
0.839468389999638,2247,1959,720
0.8421563000001697,2655,7,287
0.8448465840001518,3008,35,164
0.8475351189999856,3065,1550,470
0.8502246540001579,2695,2509,789
0.8529125639997801,2245,0,278
0.8556004729998676,2014,646,295
0.8582907159998285,2064,2030,669
0.8609793759997046,2383,537,425
0.8636675779998768,2739,0,174
0.8663568209994992,2928,545,249
0.8690482309993968,2770,1040,330
0.8717739739995523,2367,892,331
0.8744676329997674,2010,642,303
0.8771588760000668,1887,2138,674
0.8798503279995202,2103,796,467
0.8825394039995444,2474,130,235
0.8852286889996321,2768,253,192
0.8879429319995324,2800,639,266
0.8906345499999588,2432,2002,573
0.8933250019999832,2064,69,240
0.8960169109996059,1866,1170,432
0.8987064880002436,1908,2000,698
0.9013968139997814,2192,336,352
0.90408722400025,2469,252,216
0.9067759669997031,2590,1054,353
0.9094655019998754,2380,887,354
0.9121561199999633,1961,558,263
0.9148459469997761,1685,720,318
0.9175360230001388,1595,2143,679
0.9202253909998035,1764,578,417
0.9229142180001872,2061,0,173
0.9256035439993866,2211,101,143
0.9282932449996224,2090,919,294
0.9309835719996045,1746,2160,620
0.9336751479995655,1475,176,275
0.9363661409997803,1349,1567,547
0.939054509000016,1409,1469,603
0.9417434609995325,1689,58,260
0.944433036999726,1968,16,133
0.9471224049993907,2073,767,229
0.9498129399999016,1857,1168,413
0.9525035579999894,1467,9,159
0.9551935929994215,1173,655,254
0.9578863779997846,1104,907,326
0.9605765380001685,1286,527,262
0.9632677809995585,1597,85,153
0.9659575239993501,1809,323,177
0.9686475999997128,1728,769,265
0.9713356349993774,1378,1456,432
0.9740282530001423,1059,321,253
0.9767178299998704,912,1697,560
0.9794072389995563,1027,1936,705
0.9820964829996228,1320,0,272
0.9847856839996894,1598,0,126
0.9874769269999888,1676,1086,327
0.9901686279999922,1408,1887,582
0.9928578299995934,1084,0,209
0.9955481979995966,852,929,316
0.9982376489997478,848,1905,640
1.0009793089993764,1101,829,452
1.0036976769997636,1380,0,179
1.0063922539993655,1533,544,230
1.0090833719996226,1407,1242,389
1.0117731559994354,1059,613,274
1.0144652749995657,805,33,131
1.0171558929996536,747,1646,521
1.0198457609994875,935,1189,484
1.0225376709995544,1250,0,195
1.02522978900015,1489,0,102
1.0279480319995855,1529,726,235
1.0306405659994198,1286,2151,629
1.0333341429995926,1007,0,238
1.0360260110001036,843,1018,387
1.0387159209994934,865,1765,638
1.0414087049994123,1072,157,282
1.0440963649998594,1347,0,129
1.046786400000201,1571,542,213
1.0494858510000995,1459,1033,354
1.0521873449997656,1152,624,279
1.054878588000065,894,426,235
1.057569206000153,810,2101,634
1.060262490000241,1019,689,421
1.0629558999999063,1369,66,202
1.0656476019994443,1658,84,128
1.0683392199998707,1664,459,183
1.0710292960002334,1339,2755,722
1.073751748000177,1006,2,272
1.0764647819996753,850,1474,517
1.079178150000189,902,1582,594
1.0818758099994739,1153,59,251
1.084566845000154,1413,19,138
1.087266212999566,1511,560,205
1.0899572480002462,1359,1430,465
1.0926521159999538,1097,112,197
1.0953439419999995,914,583,247
1.0980348519997278,877,1935,607
1.1007264700001542,1091,490,368
1.1034155469997131,1392,31,173
1.1061068729995895,1589,256,170
1.1087986160000582,1527,273,148
1.1114904429996386,1264,2182,586
1.114182518999769,1052,343,320
1.1168925120000495,962,1639,591
1.119617880000078,1072,1379,550
1.1223365400001057,1319,46,232
1.1250381159998142,1544,0,111
1.1277342759995008,1607,431,171
1.1304261440000118,1435,2800,785
1.1331183450001845,1215,0,282
1.1358083799996166,1082,576,313
1.1385018729997682,1093,1853,634
1.141195907999645,1307,912,433
1.1438864430001559,1602,83,208
1.1466131019997192,1775,610,246
1.149308428999575,1663,1271,382
1.1520029220000652,1347,775,352
1.1546957069995187,1082,506,274
1.1573885749994588,992,1748,593
1.1600819850000335,1151,747,414
1.1627716029997828,1423,337,272
1.165463637999892,1632,16,124
1.1681538389993875,1685,464,185
1.1708427069997924,1533,2088,605
1.1735345329998381,1344,147,272
1.176225610000074,1203,1487,519
1.178918894999697,1204,1392,575
1.1816101790000175,1377,305,302
1.184301964000042,1591,0,130
1.1869959159994323,1712,540,205
1.1896874089998164,1616,977,355
1.192380360000243,1394,1505,519
1.195070228000077,1249,954,437
1.1977634300001228,1221,2455,816
1.2004542979993857,1364,542,457
1.2031424990000232,1615,217,241
1.2058342009995613,1808,336,208
1.2085253599998396,1822,741,269
1.211214979000033,1625,1971,560
1.2139067219995923,1424,470,327
1.2165990060002514,1315,1606,576
1.219291415999578,1353,1729,687
1.2219834090001314,1542,2,268
1.2246748609995848,1761,0,117
1.227365146000011,1833,848,277
1.2300552639999296,1690,1531,501
1.232746964999933,1473,413,286
1.2354357499998514,1334,586,275
1.2381349930001306,1326,1818,594
1.240828818999944,1490,495,336
1.2435183540001162,1737,0,158
1.2462095139999292,1935,387,197
1.2489027149995309,1950,863,303
1.2515960000000632,1793,1077,363
1.2542900769994958,1638,0,142
1.2569831529999647,1549,2000,638
1.2596725630000947,1634,1680,641
1.262365556000077,1843,913,457
1.2650582569995095,2064,449,293
1.2677440420002313,2193,899,316
1.2704372019998118,2145,1899,613
1.273128944999371,2000,0,224
1.2758557299994209,1875,751,320
1.2785788889996184,1860,2349,753
1.2812713409994103,1986,434,377
1.2839878750000935,2128,0,154
1.2866759939997792,2181,1188,398
1.2893697370000154,2039,544,233
1.292060687999765,1761,539,223
1.2947506390000854,1501,529,250
1.2974417989998983,1345,2032,639
1.3001321259998804,1325,840,437
1.3028222020002431,1419,0,178
1.3055124040001829,1535,21,106
1.3082053549997,1584,560,254
1.31089609799983,1489,2033,613
1.3135874660001718,1383,15,240
1.3162809179993928,1330,1216,446
1.3189723269997558,1366,1924,684
1.3216627789997801,1498,11,269
1.3243552300000374,1694,48,144
1.3270452649994695,1824,591,239
1.3297380909998537,1824,2350,698
1.3324290849996032,1714,812,491
1.3351193689995853,1650,526,321
1.3378111539996098,1605,1981,657
1.3405026889995497,1653,700,422
1.3431893070001024,1786,16,174
1.3458821750000425,1919,57,113
1.3485760429994116,1931,869,272
1.3512663699993936,1806,2146,612
1.3539573210000526,1650,390,339
1.356649481000204,1566,1617,573
1.3593413909993615,1579,1823,717
1.362032633999661,1680,241,323
1.364723376999791,1846,20,154
1.3674142029994982,1949,913,303
1.370104404999438,1902,1600,535
1.3727961059994414,1762,106,235
1.3754848079997828,1629,605,272
1.378175967000061,1566,2013,637
1.3808657939998739,1620,510,378
1.3835560789993906,1773,0,149
1.3862463219993515,1924,242,155
1.3889381479993972,1968,1035,320
1.391629433000162,1874,1017,355
1.3943196760001229,1722,90,174
1.3970116689997667,1613,1360,478
1.3997026199995162,1600,1856,628
1.4023953219993928,1708,1137,501
1.405087356999502,1851,599,333
1.407781765999971,1937,995,363
1.4104807180001444,1879,2461,767
1.413173836000169,1762,183,337
1.4158655789997283,1670,482,272
1.418588529999397,1663,2032,646
1.4212831479999295,1781,673,400
1.4239973919993645,1958,0,171
1.4266875929997695,2119,642,249
1.429380128000048,2135,945,284
1.4320770790000097,1999,713,278
1.4347666559997378,1833,448,242
1.4374562739994872,1713,2069,647
1.4401496000000407,1738,823,447
1.4428407179993883,1891,0,179
1.4455350029993497,2078,55,121
1.4482267459998184,2164,755,254
1.4509179890001178,2100,2400,697
1.4536086489997615,1949,98,292
1.456300058999659,1828,1310,491
1.4589912599994932,1814,1989,708
1.461681502999454,1968,287,336
1.4643718709994573,2174,188,207
1.467061864000243,2298,538,240
1.4697527739999714,2227,799,325
1.472443351000038,2033,638,269
1.475134968999555,1891,170,170
1.4778281700000662,1837,1616,506
1.4805194549999214,1949,667,368
1.4832098229999247,2178,35,166
1.485901649999505,2383,240,183
1.4885893509999732,2423,838,300
1.4912780109998494,2279,1931,592
1.4939689209995777,2096,177,278
1.4966672889995607,1966,1055,427
1.499358447999839,1973,2306,772
1.5020507749995886,2146,171,333
1.5047423099995285,2342,215,199
1.5074355939996167,2438,795,289
1.5101280039998528,2325,1393,476
1.5128199139999197,2105,273,244
1.515508781999415,1937,662,292
1.5182003579993761,1904,2463,765
1.5208919770002467,2033,617,448
1.5235823859993616,2230,0,176
1.5262733379995552,2379,189,158
1.5289641640001719,2353,1522,426
1.531652531999498,2139,1252,435
1.5343436499997551,1920,464,291
1.5370358519994625,1808,1825,608
1.5397294699996564,1872,1782,663
1.5424221709999983,2087,38,272
1.5451126640000439,2310,351,223
1.5478146989999004,2390,1036,323
1.5505169839998416,2229,2046,641
1.5532127689994013,1969,277,307
1.5559043029998065,1819,229,208
1.558627045999856,1818,1929,609
1.5613195810001343,2000,834,432
1.5640253239998856,2193,0,181
1.5667150669996772,2315,625,259
1.5694080599996596,2231,815,257
1.5721006369994939,1998,816,302
1.5747915049996664,1807,144,167
1.5774837479993948,1715,2426,718
1.5801731579995248,1809,820,471
1.5828654010001628,2060,0,203
1.5855561859998488,2278,266,175
1.5882432620001055,2339,859,275
1.59093475499958,2150,2258,656
1.5936251229995833,1910,26,259
1.5963162829993962,1763,1166,433
1.5990066509993994,1784,1993,693
1.6016986029999316,2000,270,330
1.6043990540001687,2271,3,153
1.60709200600013,2429,708,256
1.6097838739997314,2346,794,322
1.6124738250000519,2069,693,291
1.6151628179995896,1824,709,304
1.617854895000164,1742,2499,761
1.6205491379996602,1904,624,448
1.6232379229995786,2165,97,206
1.6259300410001742,2343,210,206
1.6286212839995642,2322,839,288
1.6313109430002442,2086,2039,619
1.634000936999655,1845,883,448
1.6366930550002508,1738,1637,617
1.639383588999408,1821,1553,654
1.6420825830000467,2064,144,284
1.6447756170000503,2301,32,154
1.647465901999567,2406,892,299
1.6501596449998033,2243,1424,493
1.65285022199987,1968,191,223
1.6555415060001906,1811,756,303
1.6582337079998979,1808,1721,581
1.6609250760002396,2023,425,337
1.6636136939996504,2313,0,144
1.6663042290001613,2496,419,210
1.6689967639995302,2448,865,299
1.671686464999766,2189,1209,393
1.6743767910002134,1898,307,240
1.6770668680001108,1743,1728,565
1.6797574860001987,1840,1509,592
1.682448395999927,2121,0,231
1.6851393059996553,2378,0,113
1.6878274649998275,2466,903,267
1.6905182499995135,2243,2411,694
1.6932097849994534,1968,69,252
1.6958991949995834,1779,783,294
1.6986213539994424,1766,2176,691
1.7013136389996362,1989,405,379
1.7040072569998301,2257,0,181
1.7066977499998757,2405,1348,411
1.7093892849998156,2289,977,352
1.7120817360000729,1967,899,339
1.714772229999653,1721,432,253
1.7174630979998255,1623,2064,655
1.7201537159999134,1807,981,478
1.7228432510000857,2142,0,191
1.7255330769994544,2391,0,105
1.7282226529996478,2426,1097,323
1.7309136049998415,2170,2384,720
1.7336064729997815,1823,0,265
1.736299424000208,1611,983,387
1.7389905429999999,1619,2054,688
1.741682201999538,1903,336,349
1.744372903999647,2192,12,159
1.7470624799998404,2321,677,256
1.7497539730002245,2147,919,343
1.7524447579999105,1803,304,195
1.7551344590001463,1601,495,238
1.7578244529995573,1494,2304,719
1.760513236999941,1701,709,457
1.7632038140000077,2021,430,304
1.765895556999567,2249,430,290
1.7685869249999087,2234,49,112
1.771275792999404,1935,2185,578
1.7739659949993438,1647,70,240
1.7766584040000453,1506,1484,509
1.7793488970000908,1630,1952,679
1.7820390990000305,1934,17,269
1.784729967000203,2174,0,125
1.7874151269998038,2225,929,304
1.7901061610000397,1987,1258,448
1.7927975299999162,1647,80,181
1.7954873560001943,1431,659,273
1.7981803909997325,1433,1739,581
1.8008716759995878,1717,466,373
1.8035607100000561,2035,116,196
1.8062527029997,2220,182,169
1.8089424049994705,2121,655,229
1.811631898000087,1740,1501,430
1.8143226410002171,1413,423,265
1.8170119679998606,1297,1801,581
1.8197070019996318,1455,1939,707
1.822396454000227,1808,0,282
1.8250867389997438,2097,0,130
1.8277798979997897,2161,957,302
1.830472849999751,1913,1750,560
1.833165342999564,1558,272,252
1.8358545860000959,1364,304,198
1.8385454959998242,1381,2367,701
1.8412385719993836,1674,534,418
1.8439541480001935,1994,18,187
1.8466471829997317,2161,595,247
1.8493373849996715,2013,863,333
1.8520284609994633,1646,958,336
1.8547178709995933,1351,551,281
1.8574082810000618,1265,2032,656
1.8601001070001075,1481,1485,578
1.8627904750001107,1847,60,240
1.865481467999416,2128,0,118
1.8681705449998844,2128,1712,506
1.870859745999951,1808,2005,692
1.8735501139999542,1426,91,272
1.8762412739997671,1251,782,358
1.8789638090001972,1374,1968,671
1.8816602179995243,1775,495,369
1.8843513370002256,2143,0,159
1.8870434129994464,2288,605,229
1.8897340729999996,2066,656,262
1.892425398999876,1621,785,295
1.8951180590001968,1312,403,238
1.8978087599998616,1270,2041,642
1.900501878999421,1562,835,464
1.9031902879996778,1965,0,192
1.9058816149999984,2225,0,107
1.9085716499994305,2195,666,228
1.9112610590000259,1841,2357,661
1.9139509269998598,1521,32,257
1.9166407120001168,1278,1342,483
1.919328539000162,1473,1959,689
1.9220191149997845,1850,199,320
1.924712066000211,2166,66,175
1.9274023509997278,2270,829,287
1.9300921359999847,2025,1360,451
1.9327832959997977,1634,231,235
1.9354724969998642,1377,546,250
1.9381637819997195,1331,1945,624
1.9414436070001102,1620,518,377
1.9442346830001043,1989,0,162
1.9469481340001948,2247,941,334
1.949654752999777,2069,1072,336
1.9523655789998884,1663,547,249
1.955057404999934,1391,194,175
1.9577488979994087,1329,1929,617
1.960441016999539,1558,751,435
1.9631301350000285,1919,21,198
1.965821085999778,2192,161,144
1.9685116209993794,2197,99,96
1.9712026560000595,1873,2384,633
1.9738934400002108,1549,22,241
1.9765884339994955,1373,1218,439
1.979280092999943,1458,1929,672
1.982023960999868,1792,219,318
1.9847451209998326,2129,0,141
1.9874456560000908,2262,763,270
1.990143314999841,2055,1164,383
1.9930908500000442,1686,0,141
1.9957910510001966,1419,374,183
1.9984882939997988,1434,2011,619
2.0012384120000206,1774,743,454
2.0040201969995906,2183,0,194
2.0067197729995314,2431,242,175
2.0094202239997685,2377,634,266
2.012121800999921,2079,1084,363
2.0148163769999883,1840,449,254
2.017515495000225,1765,2133,669
2.0202134880000813,1920,1264,548
2.022907605999535,2196,208,275
2.0256052659997295,2358,0,122
2.0283007179996275,2293,743,244
2.030997836000097,1894,2681,781
2.0336969119998685,1421,181,333
2.036395529999936,1125,1081,439
2.0390918980001516,1093,2077,708
2.0417902660001346,1365,347,345
2.0444901760001812,1709,166,199
2.0471841279995715,1899,646,258
2.0498819959993853,1815,754,291
2.052578697000172,1566,522,240
2.0552739819995622,1401,605,269
2.0579814329994406,1423,2251,693
2.0606804680001005,1719,672,432
2.0633741689998715,2043,0,182
2.066070203999516,2281,320,194
2.0687651139996888,2278,699,257
2.072654436999983,2002,2137,602
2.0753590549993532,1717,259,304
2.0780604229994424,1583,2238,718
2.08079325000017,1806,688,451
2.083527075999882,2129,787,376
2.0862613190001866,2349,288,265
2.0889644789995145,2306,953,319
2.0916595970002163,2000,1250,384
2.094355381999776,1713,0,162
2.0970500829998855,1590,1764,562
2.0997444099994027,1706,1872,703
2.1024452359997667,2016,96,290
2.105146811999475,2302,131,172
2.1078448889993524,2399,1067,344
2.110556423000162,2241,1857,565
2.113255666999976,1911,90,219
2.1159789510002156,1739,752,304
2.118677693999416,1745,1984,640
2.1213744369997585,1999,662,438
2.124067930999445,2289,0,186
2.126763381999808,2464,522,235
2.129457832999833,2382,880,331
2.1321564929994565,2063,1149,384
2.134853694999947,1785,365,240
2.137554603999888,1669,2096,667
2.14025051399949,1799,1205,528
2.1429441740001494,2100,261,297
2.145641916999921,2357,0,133
2.1483386599993537,2418,1335,378
2.1510329029997592,2208,2160,661
2.1537297289996786,1936,49,265
2.1564271389997884,1796,1339,489
2.159121091000088,1847,2170,752
2.1618164169995,2096,1125,533
2.164508451999609,2321,92,255
2.1672027779995915,2457,553,241
2.169901020999532,2347,918,336
2.172599180999896,2059,705,295
2.1752934659998573,1840,670,304
2.177990875999967,1781,2269,706
2.1806871600001614,1958,658,439
2.1833822779999537,2237,0,181
2.1860788550002326,2435,37,117
2.188773973000025,2431,832,261
2.1914693409999018,2183,2090,587
2.194161751000138,1919,353,311
2.196856493999803,1794,1549,554
2.1995524869998917,1856,2096,720
2.2022499380000227,2109,0,279
2.2049483069995404,2367,959,373
2.20764221599984,2501,784,330
2.2103389590001825,2382,1461,528
2.2130361609997635,2121,256,244
2.215730029000042,1924,679,292
2.2184268969995173,1902,2286,711
2.2211237229994367,2101,656,464
2.223815841999567,2354,0,183
2.2265105429996765,2522,297,187
2.2292100779995963,2467,928,301
2.231906611999875,2192,1708,510
2.234630938999544,1939,308,285
2.2373290989999077,1838,1325,483
2.2400243419997423,1942,3049,940
2.2427180849999786,2203,87,398
2.2454164109994963,2431,272,229
2.2481126960001347,2480,708,267
2.2508070220001173,2263,1926,610
2.2535038489995713,1963,80,237
2.256201508999766,1787,583,255
2.258893626999452,1801,2039,640
2.2615891609993923,2029,797,445
2.2642871130001367,2297,0,181
2.2669820639994214,2432,445,209
2.269679390999954,2326,720,242
2.272376717000043,2016,977,342
2.275071334999666,1778,181,176
2.2777690779994373,1706,2154,650
2.2804644050002025,1846,877,463
2.2831999809995978,2128,0,198
2.2859058909998566,2339,0,103
2.288604008999755,2334,837,265
2.291299001999505,2071,2302,670
2.2939949530000376,1787,22,256
2.2966874459998508,1638,1264,464
2.299381730999812,1676,2131,752
2.3020775989998583,1904,215,336
2.304772759000116,2139,5,153
2.3074657520000983,2256,473,197
2.3101625369999965,2126,853,327
2.312859529999514,1872,341,192
2.315553605999412,1681,215,159
2.318249348999416,1657,1605,527
2.32095155099978,1845,535,352
2.3236505019995093,2141,659,313
2.3263467449996824,2350,83,150
2.3290566129999206,2322,831,279
2.33175106499948,2057,1743,482
2.3344473500001186,1785,231,245
2.3371433840002283,1647,1787,595
2.3398368769994704,1710,2190,793
2.3425339119994533,1961,272,374
2.3452312800000072,2212,3,203
2.3479532729998027,2303,1110,365
2.3506501000001663,2128,1555,529
2.3533465099999376,1845,38,208
2.3560436279994974,1682,790,301
2.358740036999734,1673,2423,759
2.3614394890000767,1850,1066,590
2.364137689999552,2101,0,226
2.3668319329999576,2255,878,333
2.369528800999433,2176,853,341
2.3722252110001136,1907,1040,366
2.374918370999694,1680,299,229
2.377614530999381,1590,2067,663
2.380313689999639,1735,1408,595
2.3830068079996636,2008,79,261
2.385700342999371,2240,0,121
2.3883941699996285,2283,1375,391
2.3910895379995054,2067,2081,672
2.3937829059996147,1789,7,254
2.3964784409999993,1647,1021,406
2.3991746840001724,1682,1766,631
2.4018723019999015,1940,535,363
2.4045705449998422,2222,0,157
2.4072646630002055,2386,823,278
2.4099598639995747,2293,909,337
2.412654107999515,2002,592,265
2.415349475999392,1762,551,261
2.4180466349998824,1667,2246,685
2.4207445450001615,1828,718,446
2.423440746999404,2097,13,192
2.426139989999683,2299,177,157
2.428837398999349,2297,915,302
2.4315383920002205,2032,2480,704
2.4342359689999284,1754,125,320
2.4369350870001654,1622,2301,715
2.43963003799945,1711,2160,821
2.442327197999475,1984,29,323
2.4450239829993734,2271,878,345
2.4477197679998426,2391,807,325
2.450417135999487,2224,1111,434
2.453115336999872,1903,90,176
2.4558144140000877,1673,767,288
2.4585123649994785,1620,1667,562
2.461208357999567,1833,565,358
2.4639029760000994,2124,0,150
2.4666287189993454,2317,466,223
2.4693273789998784,2273,731,271
2.47202512199965,1973,1297,397
2.474720989999696,1703,435,262
2.477420066999912,1603,1572,539
2.4801178930001697,1754,1583,586
2.482812802999433,2069,47,241
2.485509254000135,2319,0,116
2.48820508100016,2384,870,279
2.4908992820001004,2158,2269,687
2.4935946499999773,1807,61,254
2.4963074759998563,1587,1293,423
2.499004885999966,1575,2058,693
2.501699878999716,1827,861,511
2.5043980809996356,2134,0,207
2.507090656999935,2318,624,263
2.509787858999516,2224,1099,321
2.5124871429998166,1882,731,298
2.5151775529993756,1648,591,299
2.517878503999782,1597,2183,681
2.5205766230001245,1792,809,464
2.5232697410001492,2096,6,197
2.525966399999561,2315,320,192
2.5286623100000725,2330,692,242
2.531354552999801,2046,2531,697
2.5340489629998046,1749,359,348
2.5367456229996606,1610,1214,466
2.5394400739996854,1684,2158,754
2.542136525999922,1983,282,370
2.5448326019995875,2278,126,189
2.547525969999697,2384,562,239
2.5502226299995527,2185,976,368
2.552920205999726,1822,593,272
2.555613990999518,1571,608,284
2.558315567000136,1509,2289,736
2.561014351999802,1757,661,453
2.5637068870000803,2107,0,187
2.566401672000211,2337,510,243
2.56909899799939,2298,1664,479
2.571791700000176,1989,2093,639
2.5744873180001377,1715,204,295
2.5771833110002262,1598,1589,557
2.5798756369995317,1732,1824,724
2.582614129999456,2066,307,363
2.5853123319993756,2323,131,198
2.588007741000183,2385,720,269
2.5907021089997215,2143,2198,668
2.5933955189993867,1794,1,237
2.596089179000046,1600,752,304
2.5987857139998596,1601,2149,670
2.6014790399995036,1883,588,432
2.6041755750002267,2187,14,183
2.6068705679999766,2352,528,237
2.609568477999346,2238,907,298
2.612266221000027,1883,1201,378
2.6149626719998196,1601,234,214
2.617662956999993,1520,2342,743
2.620363532999363,1735,1407,621
2.6230599849995997,2083,93,272
2.6257583529995827,2352,451,229
2.628456387999904,2400,713,254
2.63115813100012,2114,2032,623
2.633855082000082,1754,0,223
2.6365535750001072,1550,692,323
2.639248360000238,1552,1565,555
2.6419451860001573,1862,614,344
2.6446433049995903,2187,46,167
2.6473371309994036,2337,1051,336
2.650033457000063,2165,304,198
2.652730451000025,1807,629,240
2.6554230689998803,1564,511,240
2.6581189779999477,1510,2086,654
2.660814013000163,1763,677,421
2.663505714999701,2128,0,187
2.6661999159996412,2356,0,102
2.668895951000195,2330,569,188
2.671588901999712,1977,2367,664
2.674284728999737,1639,76,276
2.6769794299998466,1486,1597,545
2.6796731309996176,1601,1873,698
2.682369457999812,1936,328,360
2.6851004929994815,2254,0,151
2.6878063610001846,2376,802,282
2.6905010619993845,2145,1340,483
2.6931958879995364,1762,275,236
2.695890756999688,1531,640,275
2.6986694990000615,1520,2131,682
2.7013645339993673,1835,525,421
2.7040607769995404,2192,42,197
2.708666014999835,2399,450,229
2.711370299999544,2081,2299,677
2.714073334999739,1751,90,282
2.7167736199999126,1642,1114,432
2.7194689879997895,1782,1905,672
2.722168356000111,2171,162,305
2.724864681999861,2541,0,142
2.7275593839995054,2692,1343,411
2.7302572930002498,2437,668,324
2.732955161999598,2001,614,261
2.735649029999877,1667,769,305
2.738345855999796,1531,2055,656
2.741044681999483,1699,637,407
2.743741800999487,1945,0,167
2.746442126999682,2074,102,143
2.749140494999665,1920,766,239
2.7518374459996267,1521,1904,563
2.754535023000244,1225,246,276
2.757232598999508,1157,1873,631
2.759957758999917,1407,1664,682
2.762652960000196,1856,90,287
2.765349411999523,2218,0,135
2.7680461549998654,2311,834,275
2.7707376899998053,2064,1264,445
2.7734331829997245,1668,573,291
2.7761323839995384,1457,623,289
2.7788282109995635,1445,2123,689
2.7815244120001807,1825,368,375
2.7842206969999097,2212,0,163
2.786937564999789,2448,1155,370
2.789640557999519,2368,767,304
2.7923366759996497,2002,1007,351
2.795032168999569,1696,334,233
2.797726286999932,1585,2032,653
2.8004201140001896,1759,1163,528
2.8031123979999393,2117,0,208
2.805807558000197,2368,106,112
2.8085089259993765,2386,1248,345
2.8112057110001842,2088,2221,677
2.8139034119994903,1725,0,244
2.81660161399941,1520,784,341
2.8192953150000903,1589,2074,678
2.8219930169998406,1916,186,301
2.824690759999612,2242,177,190
2.8273846279998907,2384,989,336
2.8300813289997677,2213,929,342
2.832778406000216,1834,618,272
2.8354718569999022,1583,617,284
2.838168516999758,1518,2117,670
2.8408677600000374,1775,720,446
2.8435632529999566,2121,0,191
2.8462595789997067,2346,0,104
2.8489565310001126,2320,1178,341
2.851650356999926,1997,2091,629
2.854346183999951,1669,455,349
2.8570423020000817,1520,1280,489
2.859735670000191,1660,1813,662
2.862432830000216,2045,176,299
2.8651279890000296,2385,0,145
2.8678223990000333,2642,778,261
2.8705182670000795,2313,1130,394
2.87321596899983,1913,320,219
2.8759132949999184,1645,304,187
2.87863828799982,1597,2160,656
2.881336614999782,1881,490,421
2.8840363580002304,2278,17,192
2.8867740169998797,2534,240,180
2.889481010000054,2486,1010,321
2.892177836999508,2143,1073,358
2.8948704129998077,1839,61,165
2.897564156000044,1703,1610,503
2.9002585660000477,1862,1803,624
2.902955391999967,2215,43,266
2.9056570519996967,2497,45,149
2.908355128999574,2555,699,240
2.9110433300002114,2288,1970,582
2.9137388649996865,1952,115,245
2.9164340659999652,1771,432,226
2.919128183999419,1825,1353,487
2.9218259689996557,2173,560,347
2.924524878999364,2538,0,149
2.927218121999431,2726,539,233
2.9299149899998156,2576,944,323
2.932611774999714,2192,966,347
2.9353079759994216,1890,574,290
2.9380045529997005,1703,2253,710
2.9407002119996832,1996,784,474
2.9433944969996446,2336,123,235
2.9460902399996485,2597,30,133
2.9487862750002023,2617,697,239
2.9514789349996136,2323,2177,639
2.9541773029995966,1973,630,355
2.95687142099996,1792,1235,475
2.959564496999519,1847,2005,722
2.962262781999925,2150,190,327
2.964957191999929,2451,0,144
2.967650935000165,2599,827,295
2.970347219999894,2419,751,321
2.9730423800001518,2073,335,205
2.9757368310001766,1811,545,253
2.9784386569999697,1747,2150,662
2.981136192000122,1979,609,419
2.983830809999745,2304,112,211
2.9865276780001295,2511,298,208
2.989223671000218,2455,1085,338
2.991944205999971,2133,1876,590
2.994640906999848,1811,134,263
2.997335776,1667,1651,543
3.0000348100002157,1774,1817,703
3.0027787199996965,2087,143,307
3.005508754999937,2351,120,178
3.0082043309994333,2417,941,305
3.0108988239999235,2179,1606,528
3.0135934009995253,1829,254,249
3.0162918939995507,1598,823,330
3.0189878450000833,1598,2067,669
3.021683171999939,1868,582,407
3.024379830999351,2165,464,290
3.0270742409993545,2336,506,260
3.0297710260001622,2245,886,321
3.032471061000251,1925,1056,363
3.035166969999409,1667,557,288
3.0378633379996245,1584,2172,713
3.0405616230000305,1742,1473,642
3.043256740999823,2034,383,358
3.0459536090002075,2283,263,210
3.048654686000191,2349,911,304
3.051452719999361,2112,2047,613
3.054199170999709,1758,0,234
3.056899622999481,1545,963,376
3.05960099099957,1597,1720,601
3.0622981509995952,1891,149,271
3.064997518999917,2186,74,158
3.0676952619996882,2320,1062,352
3.0703923800001576,2165,746,331
3.073089789999358,1845,950,348
3.0757856159998482,1616,1599,555
3.0784829429994716,1583,1933,711
3.08117785200011,1813,534,427
3.0838743869999234,2119,0,178
3.086624004999976,2301,191,160
3.089322748000086,2243,959,306
3.0921880739997505,1939,2146,603
3.0949663589999545,1655,407,336
3.0976778929998545,1527,1943,633
3.1003692610001963,1681,1911,697
3.103057755000009,1986,16,288
3.10575066399997,2255,438,240
3.1084436989995083,2334,874,307
3.111136400999385,2119,1919,605
3.113827559999663,1808,0,216
3.1165251779993923,1647,1081,353
3.1192264629999045,1673,2067,689
3.1219303309999304,1918,846,468
3.1246572410000226,2189,64,208
3.127423983999506,2325,545,241
3.130212351999944,2210,1179,352
3.1329452609998043,1908,394,219
3.135643212999639,1680,598,259
3.1383354559993677,1635,2189,693
3.1410264489995825,1811,788,448
3.143720109000242,2112,334,272
3.146420267999929,2330,208,192
3.1491172199994253,2341,1071,358
3.151831045999643,2070,2137,627
3.1545384559995,1762,263,304
3.1572349489997578,1601,1701,576
3.159962274999998,1678,1920,699
3.1626563519994306,1952,313,332
3.165348720000111,2224,717,334
3.168045505000009,2342,929,349
3.1707407479998437,2175,1216,463
3.173433365999699,1863,110,193
3.176126483999724,1648,630,268
3.1788194350001504,1603,2291,701
3.18150934499954,1814,634,465
3.1842014220001147,2101,26,197
3.186892747999991,2291,400,214
3.1895865329997832,2250,788,283
3.192298400999789,1970,989,338
3.195008351999604,1718,0,133
3.1977145119999477,1587,1773,533
3.200408879999486,1697,1759,634
3.2030985399997007,1994,0,249
3.205790240999704,2255,0,125
3.20848690099956,2321,947,290
3.2111776860001555,2102,1974,611
3.2138700539999263,1792,22,221
3.2165624640001624,1598,720,286
3.2192525399996157,1584,1961,649
3.221942907999619,1814,528,381
3.2246333599996433,2096,0,158
3.2273255189993506,2260,588,241
3.2300197630002003,2163,997,359
3.2327111719996537,1863,912,338
3.2354023319994667,1627,328,230
3.2380920329997025,1549,1963,627
3.240781692999917,1719,906,462
3.2434708949995184,2031,80,217
3.2461667629995645,2269,272,208
3.2488621729999068,2306,496,220
3.2515522909998253,2028,2292,650
3.2542616999999154,1721,0,220
3.256966734999878,1557,800,340
3.2596614779995434,1584,2016,671
3.2623547630000758,1841,96,275
3.265047631000016,2113,112,166
3.267737582999871,2245,1451,448
3.27042824199998,2096,753,357
3.273121193999941,1783,505,259
3.27580918700005,1566,737,310
3.2784993049999684,1515,2299,714
3.2811900899996544,1689,575,429
3.283879249000165,2007,0,178
3.286601826000151,2239,0,109
3.2895941930000845,2244,1131,323
3.2923050609997517,1975,2041,591
3.2949304710000433,1658,349,307
3.297506797999631,1511,1854,598
3.300080957999853,1632,2101,768
3.302652909999779,1925,80,320
3.3052273610001066,2200,0,155
3.307801437999842,2317,1313,411
3.3103760570002123,2156,774,363
3.312950216999525,1840,445,248
3.3155241269996623,1616,707,302
3.318099328000244,1527,1792,593
3.3206734049999795,1707,1015,481
3.323247856999842,2005,0,203
3.325822474999768,2255,113,147
3.328396134999821,2318,1510,432
3.3309680450001906,2106,1072,427
3.333541621999757,1789,77,176
3.33611557399945,1586,945,349
3.338688609000201,1579,2308,751
3.3412611439998727,1824,539,432
3.3438333039994177,2146,28,194
3.3464095889994496,2362,176,164
3.3489839989997563,2343,702,246
3.351558033999936,2064,2346,671
3.3541383609999684,1744,0,240
3.356717103999472,1577,814,366
3.3592922230000113,1601,2000,688
3.361866882999493,1863,551,416
3.3644453349998003,2160,0,181
3.367018535999705,2320,540,240
3.3695914459995038,2239,1065,356
3.3721645229998103,1916,1117,375
3.3747371419995034,1648,371,246
3.3773110519996408,1545,1475,510
3.3798843369995666,1668,1939,682
3.3824575799999366,1975,69,283
3.385030282000116,2259,0,128
3.387604024999746,2389,528,210
3.3901775599997563,2219,826,292
3.3927557199995135,1857,684,275
3.395333380000011,1598,244,188
3.3979082070000004,1519,1904,602
3.4004799919994184,1714,1531,608
3.403052611000021,2058,6,242
3.4056254369997987,2323,170,163
3.4081995559999996,2401,909,304
3.410773257999608,2183,1549,527
3.41334683399964,1825,336,261
3.4159341189997576,1600,490,245
3.4185091959998317,1561,2221,674
3.421083563999673,1818,674,437
3.42365693299962,2162,0,183
3.4262304679996305,2385,35,112
3.4288040450001063,2409,813,256
3.4313788299996304,2170,2005,613
3.4339529899998524,1897,0,221
3.4365263999998206,1789,511,261
3.439099102,1898,1629,555
3.4416735119993973,2240,528,373
3.444245504999344,2571,0,159
3.446819957000116,2721,336,187
3.4493946590000633,2555,865,298
3.451969527000074,2117,1826,554
3.454549353999937,1693,229,272
3.457126679999419,1442,1526,530
3.459701007000149,1451,1858,683
3.462274501000138,1713,883,475
3.464848451999387,1999,218,259
3.4674223619995246,2145,698,282
3.4699963969997043,1983,879,320
3.4725701409997782,1712,1067,382
3.475143259000106,1425,341,242
3.4777169609997145,1372,1920,639
3.480290413000148,1584,1552,640
3.482864738999524,1966,48,266
3.4854391909993865,2273,0,129
3.488012684999376,2381,882,283
3.490585677999661,2176,1131,432
3.49316475500018,1819,528,284
3.495742414999768,1579,505,257
3.4983176579999054,1521,2239,700
3.500891276999937,1782,848,481
3.5034708120001596,2160,0,205
3.5060475549998955,2450,0,112
3.508622757000012,2496,1571,435
3.511197166999409,2218,2101,690
3.513770951999504,1855,0,250
3.5163460289995783,1643,688,293
3.518920521999462,1654,2130,675
3.5214943900000435,1936,480,402
3.5240678419995675,2278,0,166
3.526640918999874,2512,49,129
3.529214411999419,2487,723,237
3.5317866139994294,2159,2157,624
3.5343598569997994,1808,83,256
3.5369331430001694,1635,494,277
3.5395053439997355,1724,2131,685
3.5420786710001266,2075,299,322
3.5446525809993545,2414,286,237
3.547228573999746,2582,347,207
3.5498046510001586,2448,914,314
3.5523788529999365,2060,1901,563
3.5549604299994826,1731,385,320
3.5575414229997477,1626,1882,624
3.560116707999441,1808,1808,751
3.562689743000192,2187,80,327
3.565263861999483,2507,373,233
3.5678363970000646,2621,720,277
3.570411140000033,2401,781,325
3.5729839249997895,1983,550,247
3.5755572099997153,1689,485,243
3.578130787000191,1613,2096,663
3.580704197000159,1869,1091,522
3.583277564999662,2243,0,223
3.5858503499994185,2545,4,120
3.58842396899945,2630,807,269
3.590996754000116,2361,1573,525
3.5935758719997466,1963,14,193
3.5961551159998635,1721,525,226
3.5987289009999586,1712,2014,645
3.6013017690002016,2009,429,390
3.6038740129997677,2400,0,174
3.606447422999736,2682,459,236
3.609019458000148,2651,616,253
3.6115922849994604,2298,1580,473
3.6141650700001264,1910,14,174
3.616739229999439,1707,666,304
3.6193130980000205,1770,2031,671
3.6218869249996715,2112,685,448
3.6244614600000205,2470,0,194
3.627034702999481,2686,370,208
3.629607197000041,2608,957,321
3.632180397999946,2257,1845,546
3.6347537249994275,1939,359,304
3.6373270099993533,1795,1401,501
3.63990037900021,1924,1760,663
3.6424919969995244,2257,210,305
3.645068156999514,2554,32,156
3.647643149999567,2688,641,255
3.6502169770001274,2510,720,256
3.6527938039998844,2150,641,261
3.655374213999494,1873,183,186
3.657953248999547,1792,2010,633
3.660529533999579,1967,1647,627
3.6631038609993993,2306,125,285
3.665676937999706,2588,0,133
3.6682500560000335,2677,1202,365
3.670823673999621,2416,1392,498
3.6733969179995256,2000,223,244
3.6759721190001073,1730,607,273
3.6785456959996736,1698,2114,668
3.681118730999515,1969,721,441
3.6836914329996944,2328,0,187
3.6862655929999164,2585,0,101
3.6888387529998,2585,637,209
3.691411580000022,2267,2046,624
3.6939890319999904,1868,146,240
3.6965660669993667,1643,628,272
3.6991408519998004,1637,2157,673
3.7017135119995146,1926,458,393
3.704284796999673,2256,13,189
3.7068570820001696,2476,98,128
3.70943140899999,2430,1005,331
3.712006693999683,2095,2363,667
3.7145806039998206,1748,355,355
3.7171544719994927,1583,110,183
3.719728006999503,1661,1837,592
3.722301583999979,1967,86,257
3.724873368999397,2274,0,121
3.727446695999788,2409,709,255
3.730019605999587,2256,969,368
3.7325927239999146,1889,1087,373
3.7351661759994386,1587,406,257
3.7377395029998297,1472,1616,528
3.740313079999396,1633,1920,693
3.7428878649998296,1993,36,283
3.7454636080001364,2241,32,151
3.748039809999682,2410,839,285
3.7506142199999886,2192,1262,426
3.753187421999428,1824,451,252
3.755766289999883,1569,464,238
3.7583440749995134,1506,2000,646
3.760918859999947,1731,870,469
3.7634921869994287,2064,624,347
3.76606551399982,2283,242,207
3.7686383399995975,2309,1002,330
3.771211583999502,2019,2177,674
3.773785201999999,1666,0,241
3.776380237000012,1446,559,254
3.778953521999938,1439,2065,651
3.7815265990002445,1725,477,404
3.7841001759998107,2059,2,182
3.7866733359996942,2319,309,211
3.7892464130000008,2290,757,274
3.7918193229997996,1968,2253,640
3.7943967740002336,1633,5,251
3.796974267999758,1452,1049,427
3.799548469000001,1519,1987,677
3.8021213789998,1831,853,473
3.8046948310002335,2155,529,332
3.8072669499997573,2327,156,162
3.8098408599998947,2218,1616,483
3.8124161859996093,1850,1007,400
3.814990387999387,1529,275,244
3.8175638399998206,1420,1659,562
3.8201373329993658,1568,1826,690
3.8227104930001587,1927,63,289
3.8252843199998097,2256,0,141
3.8278571470000315,2379,627,231
3.830429931999788,2183,659,275
3.8330033000002004,1782,621,249
3.835576544000105,1501,240,193
3.8381506199993964,1414,2404,717
3.8407242809998934,1612,1203,560
3.843297565999819,1973,145,272
3.845872017000147,2254,0,130
3.848446676999629,2304,816,272
3.8510202540001046,2021,1520,496
3.853599289000158,1642,285,240
3.8561741989997245,1396,715,301
3.8587466509998194,1367,2174,701
3.8613211860001684,1645,595,432
3.863893679999819,2002,0,179
3.866481797999768,2262,7,113
3.8690566659997785,2279,854,271
3.871630118000212,1969,2087,621
3.874203610999757,1609,263,277
3.876777020999725,1413,626,303
3.8793499729999894,1456,1600,562
3.8819231749994287,1776,935,455
3.8844962100001794,2125,751,394
3.887070286999915,2317,42,172
3.889643196999714,2206,891,292
3.8922158149998722,1837,2159,599
3.8947925590000523,1498,138,272
3.8973709269994288,1346,945,402
3.8999539199994615,1477,1885,656
3.9025270390002333,1847,371,336
3.9050984489995244,2192,0,151
3.907670316999429,2363,254,151
3.9102443109995875,2234,907,251
3.9128192620000846,1881,1107,359
3.915392547999545,1587,224,209
3.918591372999799,1455,2097,671
3.9211754489997475,1607,1733,678
3.9237487760001386,2016,0,270
3.9263221029996203,2257,737,305
3.9288964709994616,2259,929,336
3.931469630999345,1955,1997,631
3.9340435409994825,1600,0,225
3.9366176180001275,1395,880,323
3.9391906529999687,1434,2251,708
3.941764146999958,1770,505,397
3.9443376819999685,2161,409,311
3.946912925000106,2393,39,144
3.9494881270002224,2339,631,233
3.952062203999958,1968,2439,654
3.954635989000053,1647,53,255
3.957210189999387,1472,1615,547
3.959783974999482,1563,1901,709
3.9623569690002114,1880,249,326
3.9649300869996296,2204,266,235
3.967504080999788,2358,656,276
3.9700787820002006,2235,788,317
3.9726520670001264,1873,1351,439
3.9752256439996927,1568,839,392
3.9777988460000415,1427,1678,579
3.9803718389994174,1567,1931,724
3.9829514160001054,1947,95,304
3.9855282839998836,2243,55,163
3.9881029439993654,2384,847,288
3.9906762709997565,2221,843,342
3.9932493059995977,1872,569,259
3.9958306749995245,1621,485,245
3.99841195999943,1550,2229,691
4.000986119999652,1758,938,501
4.003598070999942,2107,443,336
4.006192648000251,2365,182,192
4.008768099999543,2407,1235,379
4.01134230200023,2146,1641,563
4.013916920000156,1789,517,331
4.016490829999384,1559,339,238
4.0190643649993945,1520,3452,976
4.021788815999571,1745,587,555
4.024362684999687,2160,0,227
4.026937011999507,2384,189,176
4.02951200499956,2353,710,240
4.032085707000078,2045,2034,562
4.034658824999497,1738,359,289
4.037232652000057,1580,1172,448
4.039805561999856,1646,1943,718
4.042378346999612,1935,421,355
4.044952423999348,2250,0,157
4.047527416999401,2420,487,199
4.050102952000088,2321,531,238
4.05267657100012,2001,833,293
4.055249646999982,1728,801,302
4.057822431999739,1595,1186,415
4.060396883999601,1712,1988,688
4.062970836000204,2020,170,304
4.065543120999791,2310,71,176
4.068116738999379,2410,487,202
4.070689649000087,2209,833,320
4.073262684999463,1849,550,255
4.0758352200000445,1602,496,249
4.0784085459999915,1553,1953,627
4.080981872999473,1766,1019,494
4.083553990999462,2098,96,235
4.086128526999346,2352,226,178
4.088701562000097,2415,1238,373
4.091275054999642,2196,1805,598
4.093848089999483,1854,80,229
4.096456166999815,1618,530,270
4.09905986800004,1585,2325,717
4.1016394029993535,1838,576,406
4.104212938999808,2157,117,216
4.106785056999797,2367,181,151
4.109360008999829,2339,913,297
4.1119440020002,2019,2210,657
4.1145180369994705,1692,0,235
4.117092239000158,1520,944,389
4.119665856999745,1583,2063,694
4.122239516999798,1899,528,426
4.124814011000126,2245,12,190
4.127386545999798,2453,432,212
4.129959873000189,2374,1014,345
4.132533449000221,2037,1630,509
4.135106192999956,1736,144,246
4.137680353000178,1598,2587,784
4.140255595999406,1719,1609,688
4.142828797999755,2076,117,304
4.145402665999427,2436,93,158
4.147976242999903,2634,421,211
4.150549445000252,2516,610,254
4.1531220629995005,2210,752,273
4.155695514999934,1948,82,144
4.158268882999437,1818,2250,672
4.160842792999574,1945,1505,594
4.163416911999775,2192,0,239
4.165990030000103,2346,0,118
4.168563774000177,2304,1445,414
4.171137309000187,1945,1575,543
4.173710051999478,1478,224,240
4.176284420000229,1185,639,285
4.178856871999415,1132,2305,720
4.1814306159994885,1410,639,443
4.184004066999478,1825,0,184
4.18657718600025,2137,128,146
4.18915042899971,2198,975,304
4.191723338999509,1941,1813,587
4.19429637399935,1629,391,300
4.19687790900025,1439,625,289
4.199455985999521,1477,2087,663
4.202030395999827,1802,317,351
4.20461051500024,2161,141,193
4.207182799999828,2389,1043,364
4.209755668000071,2352,934,358
4.21232991099987,2032,2069,617
4.214903446999415,1723,135,269
4.2174786069999755,1565,1459,518
4.220053224999901,1635,2096,736
4.2226270929995735,1942,159,328
4.225200502999542,2240,80,178
4.227775246999954,2361,845,297
4.23034986499988,2198,1037,337
4.232923441999446,1862,782,304
4.23549610200007,1610,115,167
4.238070344999869,1519,1759,576
4.240648838999732,1699,1793,685
4.243221623999489,2037,0,270
4.245793783999943,2320,18,128
4.248367569000038,2423,554,208
4.250940520999393,2220,1099,374
4.253514097999869,1846,461,244
4.256087423999816,1587,110,160
4.25866116799989,1527,2485,737
4.261235369000133,1775,819,496
4.263807821000228,2142,0,230
4.266380815000048,2403,0,117
4.268954391000079,2425,919,272
4.2715266349996455,2112,1999,609
4.274101044999952,1765,153,255
4.2766740380002375,1525,905,346
4.279247239999677,1518,2115,691
4.28182039999956,1808,547,433
4.284392976999698,2163,23,202
4.286966386999666,2378,253,176
4.289539171999422,2367,993,323
4.29211287399994,2064,2352,691
4.294687616999909,1731,230,322
4.297266609999497,1561,2064,688
4.299843062000036,1622,1958,789
4.302416763999645,1934,535,405
4.304990382000142,2277,141,224
4.307563208999454,2475,914,337
4.310135493999951,2378,871,342
4.312709695999729,2000,1360,443
4.315283064000141,1663,69,199
4.317857015999834,1514,1955,619
4.320431383999676,1667,1854,737
4.323004752999623,2027,117,316
4.32557807899957,2367,0,144
4.328151197999432,2512,883,304
4.330724774999908,2320,807,333
4.333298059999834,1933,611,268
4.335871260999738,1673,496,256
4.338443921999897,1600,2063,643
4.341016872999717,1828,1200,520
4.343589282999346,2213,0,214
4.346162193000055,2506,0,115
4.348735019999367,2575,885,272
4.351308221999716,2295,1618,501
4.35388117399998,1872,26,183
4.356455334000202,1619,553,237
4.359029159999409,1599,2037,651
4.3616021950001596,1887,531,396
4.364174980999451,2263,207,231
4.366747891000159,2512,127,157
4.369329841999388,2497,625,234
4.37190671099961,2146,2143,624
4.374497245999919,1749,1040,447
4.37707240599957,1552,917,447
4.3796454829998765,1611,1948,697
4.382217975999993,1936,851,494
4.384790678000172,2293,50,222
4.387364795999929,2499,256,186
4.389939247999791,2415,819,262
4.392513574999612,2039,1919,528
4.395086275999347,1681,158,235
4.397664811000141,1488,1439,502
4.400241180000194,1600,2105,749
4.402814506999675,1818,71,304
4.405387207999411,2275,32,157
4.40795990999959,2416,865,294
4.410532694999347,2237,690,256
4.413106312999844,1812,697,262
4.415679599000214,1475,528,257
4.418253050000203,1344,1776,609
4.420827543999621,1552,1406,560
4.4234017039998434,1954,69,242
4.4259758640000655,2275,416,222
4.42854881599942,2380,617,240
4.43112389199996,2117,1579,559
4.433697593999568,1712,1214,470
4.436270670999875,1441,587,342
4.438843580999674,1383,2417,762
4.4414171990001705,1658,595,441
4.443990025999483,2032,89,223
4.446562643999641,2288,439,231
4.449136012999588,2282,1459,455
4.451710422999895,1941,1940,655
4.454283375000159,1548,1,238
4.456857035000212,1311,770,304
4.459430694999355,1341,2022,661
4.462003771000127,1664,528,411
4.464576307000243,2035,16,189
4.467149258000063,2266,225,159
4.469722126999841,2198,813,266
4.472295661999851,1841,2112,597
4.474868196999523,1493,0,213
4.477442231999703,1327,1335,471
4.480016058999354,1418,1996,719
4.4825891769996815,1796,257,341
4.485163086999819,2181,0,161
4.487736496999787,2365,1168,375
4.490309406999586,2218,986,379
4.492882733999977,1811,1245,413
4.495455477000178,1459,674,327
4.498034678999829,1309,1921,621
4.500611338999988,1461,2222,810
4.50318466599947,1850,213,372
4.505757533999713,2133,565,337
4.508329569000125,2272,854,342
4.510902478999924,2037,967,361
4.513475472999744,1646,320,205
4.51605038300022,1379,528,231
4.518623875999765,1339,2190,681
4.521197910999945,1618,1040,519
4.523771655000019,2016,90,244
4.526343982000071,2299,0,127
4.528917642000124,2320,1088,315
4.531491676999394,1999,1687,560
4.534064337000018,1597,282,268
4.5366374969999015,1361,1092,391
4.539210199000081,1361,1787,621
4.5417833589999645,1682,544,375
4.544355727000038,2083,0,175
4.546928470000239,2334,0,99
4.549503880999509,2301,951,289
4.552076832000239,1943,2458,711
4.554650117000165,1569,0,252
4.557225651999943,1370,825,353
4.5597993119999956,1438,3198,969
4.562373431000196,1799,704,558
4.564946382999551,2171,66,250
4.567519209000238,2378,498,256
4.570093411000016,2273,848,303
4.57266765499935,1874,1359,419
4.575241397999889,1511,261,244
4.577815933000238,1345,1781,577
4.580390717999762,1476,1915,691
4.58296433599935,1844,132,310
4.585538412999995,2192,33,162
4.588111406999815,2357,1039,337
4.590683899999931,2162,581,268
4.593257309999899,1744,316,176
4.5958300530001,1434,791,292
4.598408838999603,1356,1202,465
4.600985207000122,1577,1488,538
4.603558033999434,1966,777,416
4.606129943999804,2269,0,165
4.6087027699995815,2353,677,256
4.611274680999486,2093,1391,443
4.613846049000131,1697,224,209
4.616418333999718,1446,760,301
4.618991201999961,1413,1679,560
4.621565028999612,1712,745,400
4.624139605999517,2127,0,168
4.62671247399976,2359,19,102
4.629286175999368,2341,891,265
4.631859461000204,1999,2260,676
4.634433995999643,1606,0,240
4.6370066559993575,1368,670,272
4.63957898299941,1387,1973,608
4.642153101000076,1717,542,387
4.644727095000235,2089,0,166
4.647301838000203,2298,448,202
4.649876206999579,2247,784,272
4.6524491999998645,1894,1992,581
4.655022109999663,1533,58,239
4.657595353999568,1375,1087,418
4.66016842999943,1487,2333,777
4.662741174000075,1789,92,321
4.665315333999388,2155,34,166
4.6678880769995885,2301,764,272
4.670461529000022,2145,787,315
4.673036563999631,1726,1232,409
4.6756101410001065,1488,277,240
4.678184051000244,1392,1689,562
4.68075733600017,1578,1936,715
4.68333087100018,1936,0,288
4.685904197999662,2242,27,149
4.6884786079999685,2330,981,318
4.691051183999662,2074,1667,523
4.693625011000222,1690,789,364
4.696197754999957,1443,1632,548
4.698776123000243,1421,2101,757
4.701352615999895,1676,869,510
4.703940151000097,2029,0,212
4.706513727999663,2286,32,127
4.709086596999441,2314,930,285
4.711658797999917,2022,1933,583
4.714231999999356,1651,2,209
4.716806243000065,1424,698,286
4.7193787779997365,1424,2128,687
4.7219521469996835,1715,511,431
4.724524598999778,2091,13,192
4.727097883999704,2309,151,132
4.729670918999545,2272,1279,380
4.732243953999387,1936,1880,581
4.734816696999587,1600,177,267
4.737390023999978,1447,1135,445
4.739964350999799,1530,1529,592
4.742538260999936,1872,857,433
4.745110545999523,2217,31,191
4.747683247999703,2377,591,251
4.750257407999925,2260,781,295
4.752829858999576,1889,1199,398
4.7554027689993745,1589,114,198
4.757975970999723,1445,1777,575
4.7605496730002415,1610,1920,706
4.7631223749995115,1966,53,297
4.765702075999798,2272,115,174
4.7682753609997235,2374,756,286
4.77084922999984,2165,688,280
4.773421764999512,1776,683,269
4.775995383000009,1494,532,260
4.7785688349995326,1413,2121,661
4.781141869999374,1629,1265,549
4.783714196999426,1988,0,232
4.786287189999712,2273,272,190
4.788859641999807,2333,800,283
4.791432385000007,2077,1315,464
4.794005586999447,1687,390,255
4.7965792469994994,1456,603,273
4.799156365999806,1415,2224,709
4.801733442000113,1679,592,432
4.80430681100006,2034,2,192
4.806879553999352,2291,0,106
4.809452088999933,2285,934,284
4.812026333000176,1946,2259,665
4.814599950999764,1575,0,256
4.817174943999817,1377,745,316
4.81974918800006,1415,1645,569
4.822321765000197,1731,261,304
4.824895590999404,2091,343,241
4.82746866799971,2315,1369,446
4.8300426199994035,2256,789,352
4.832615571999668,1920,1998,592
4.835189440000249,1589,1327,527
4.837763307999921,1392,2631,885
4.840337051999995,1550,1987,857
4.842910128999392,1890,576,464
4.845483621999847,2215,127,229
4.848058114999731,2374,758,293
4.850630899999487,2257,1207,352
4.853204934999667,1936,285,192
4.855777678999402,1707,351,196
4.858350714000153,1650,1749,593
4.860924499000248,1878,1839,673
4.863497534000089,2256,64,286
4.8660711109996555,2528,0,131
4.868643521000195,2590,848,273
4.871216388999528,2309,1153,407
4.8737892990002365,1853,406,240
4.876362250999591,1495,426,227
4.878936078000152,1329,2137,656
4.881509738000204,1455,735,438
4.884082147999834,1727,30,198
4.886654432999421,1920,0,109
4.889227134999601,1919,687,218
4.8918000449994,1677,1881,553
4.894373330000235,1331,272,269
4.89694628199959,1178,427,238
4.899524816999474,1239,2044,656
4.90210135199959,1589,497,384
4.904674929000066,1993,13,181
4.9072468389995265,2256,30,117
4.909818706999431,2245,805,256
4.912391991999357,1936,2647,754
4.91496565199941,1603,25,273
4.917539520999526,1429,1145,446
4.920112431000234,1465,2000,710
4.922685298999568,1819,539,397
4.925259500999346,2160,191,213
4.927832786000181,2352,278,176
4.93040540399943,2255,858,277
4.93297893899944,1923,1195,377
4.935552390999874,1653,301,231
4.938127550999525,1527,1680,541
4.940701002999958,1659,1720,681
4.9432741209993765,1969,222,314
4.9458479059994715,2257,57,160
4.948420400000032,2385,783,266
4.950993309999831,2210,606,270
4.953566469999714,1867,463,229
4.956139337999957,1618,564,256
4.958712165000179,1546,2302,720
4.9612849919994915,1727,1125,535
4.963858568999967,2059,301,291
4.966433436999978,2331,201,197
4.969006389000242,2399,1093,355
4.971579006999491,2154,1967,631
4.9741534589993535,1799,393,313
4.976726118999977,1584,400,243
4.979298946000199,1575,2629,817
4.981871313999363,1863,801,508
4.984444140999585,2214,166,255
4.987015466999765,2439,0,117
4.9895892109998385,2433,561,189
4.992162163000103,2128,1952,567
4.994735989000219,1779,133,225
4.997308857999997,1578,273,203
4.999887017999754,1584,1823,595
5.0024631779997435,1902,495,374
5.005070587999398,2256,0,158
5.00766583099994,2474,411,213
5.010238783000204,2418,1009,327
5.012813192999602,2086,1626,488
5.015387270000247,1737,240,253
5.017961638000088,1574,1489,517
5.020535214999654,1696,1942,704
5.023108542000045,2033,16,281
5.02568253499976,2362,0,140
5.028257486999792,2512,667,243
5.030831146999844,2361,944,304
5.033404681999855,2032,999,339
5.035977966999781,1710,949,383
5.038551210000151,1618,1655,601
5.041125161999844,1808,1456,576
5.0436980309996216,2148,0,242
5.046271315999547,2477,0,117
5.048845683999389,2575,944,299
5.051424718999442,2341,1697,569
5.054001712000172,1975,646,349
5.056576748000225,1759,407,257
5.059150948999559,1742,2337,724
5.061724067999421,1918,833,493
5.064297643999453,2327,0,208
5.066871137999442,2557,82,133
5.0694453810001505,2571,832,272
5.0720201249996535,2265,2118,632
5.074591200999748,1885,0,222
5.077203985999404,1691,687,262
5.079805020999629,1723,1876,639
5.082381972999428,2014,592,393
5.084958966000158,2361,16,175
5.0875328769998305,2687,208,144
5.090107328000158,2455,783,246
5.092680863000169,2064,1888,541
5.095255272999566,1707,235,271
5.097829100000126,1535,852,368
5.100428468000246,1627,2027,689
5.103031794999879,1933,752,445
5.105614579999383,2239,368,275
5.108190156999626,2374,372,209
5.110762692000208,2199,539,176
5.113337060000049,1789,880,272
5.115911594999488,1467,0,113
5.118503214000157,1411,2064,636
5.121079873999406,1490,2285,793
5.123654908999924,1821,10,311
5.126229485999829,2097,1856,607
5.128806646000157,2171,1205,507
5.131421764000152,1925,784,401
5.134038090999638,1546,176,204
5.136621126000136,1280,543,240
5.13919428600002,1223,1881,615
5.141769320999629,1471,693,423
5.1443426059995545,1818,0,176
5.14691559899984,2074,39,115
5.149498508999386,2086,818,253
5.152072460999989,1760,2272,658
5.154645912999513,1371,0,221
5.157233156000075,1152,640,251
5.159812732999853,1173,2081,646
5.162388435000139,1488,529,402
5.164961636000044,1845,0,175
5.167534295999758,2074,329,181
5.170108540000001,2002,868,272
5.172682032999546,1639,2004,577
5.175256151999747,1291,144,255
5.1778308530001595,1122,1346,467
5.180403804999514,1217,1984,705
5.1829763819996515,1574,205,315
5.185550416999831,1907,0,144
5.188124409999546,2059,370,169
5.190698444999725,1879,561,215
5.193272063999757,1483,1173,366
5.195844973999556,1179,0,144
5.19841846700001,1075,1138,400
5.200992710999344,1266,2041,679
5.203566578999926,1647,0,272
5.20613953100019,1964,238,186
5.208711774000221,2068,451,192
5.211284850999618,1827,973,322
5.2138585530001365,1440,524,241
5.216431628999999,1183,509,240
5.219004705999396,1136,2135,656
5.221579532999385,1351,849,475
5.224152568000136,1702,9,203
5.226725602999977,1965,20,114
5.22929926300003,2001,880,272
5.231872339999427,1723,1891,587
5.234446333000051,1348,101,230
5.23701953499949,1127,622,268
5.239593403000072,1136,2089,663
5.242166688999532,1441,493,384
5.244739181999648,1823,38,188
5.2473121339999125,2065,95,138
5.249885168999754,2012,720,237
5.2524592449999545,1665,1843,533
5.2550323219993516,1316,470,309
5.2576127319998704,1141,551,290
5.260191558999395,1225,1485,526
5.262766551999448,1583,1011,441
5.265339795999353,1953,0,178
5.267912872999659,2166,486,221
5.270506615999693,2061,861,298
5.273081401000127,1664,1322,410
5.275657268999566,1325,250,226
5.278234262999831,1181,1842,563
5.280807463999736,1334,1786,675
5.283380290999958,1719,74,287
5.285953367999355,2043,27,146
5.288527319999957,2175,768,269
5.291351312000188,1947,784,305
5.294196304999787,1520,688,272
5.2969337979993725,1189,593,268
5.299665957999423,1171,2203,677
5.302400408999347,1491,493,387
5.305129859999397,1904,0,161
5.307858269999997,2143,314,176
5.310624220999671,2064,882,283
5.315490125999531,1684,1136,352
5.318227409999963,1260,1034,441
5.32096469499993,1392,1969,657
5.323697480000192,1754,127,293
5.326430055999481,2053,161,176
5.3291617989998485,2133,832,277
5.3318919590001315,1852,1259,406
5.33466403500006,1444,161,177
5.338398983999468,1212,429,202
5.341222142999868,1239,1711,556
5.344008135999502,1754,80,253
5.34674496200023,2077,49,140
5.349492747000113,2130,964,301
5.352234072999636,1803,2000,613
5.354963857999792,1392,0,223
5.35769480899944,1187,609,296
5.360436551999555,1270,1933,629
5.363165087000198,1650,451,348
5.365894579999804,2026,0,145
5.368624656000065,2206,671,240
5.371352815999671,2002,659,272
5.374082309000187,1600,256,163
5.376812509999581,1323,933,320
5.379543336000097,1296,1018,399
5.3822767880001265,1613,599,324
5.385006530999817,1995,0,153
5.387735106999571,2224,226,164
5.390464557999621,2147,821,272
5.393195175999608,1757,1349,388
5.395967878000192,1424,400,262
5.398701121000158,1303,1775,541
5.401430697000251,1519,1449,530
5.404174231999605,1920,435,333
5.406909807999909,2203,0,144
5.409641800999452,2225,898,291
5.412368876999608,1909,2058,635
5.415094412000144,1556,0,228
5.417824071999348,1406,896,378
5.420556189999843,1545,2095,720
5.423284098999829,1941,358,373
5.426013383999816,2305,110,193
5.428743084999951,2462,656,263
5.431474702999367,2267,797,315
5.434207112999502,1895,242,175
5.436936105999848,1666,626,246
5.439662931999919,1651,1862,617
5.442392758999631,1962,576,371
5.4451264600002105,2323,0,161
5.447858077999626,2550,284,177
5.450625071000104,2450,867,285
5.453358521999689,2064,1530,457
5.456090474000121,1743,153,211
5.458819716999642,1633,1600,551
5.461549625999396,1840,1614,617
5.46427907799989,2207,0,237
5.467006736999792,2498,272,162
5.4697353139999905,2546,858,294
5.472463889999744,2256,2256,688
5.475193924999985,1887,0,241
5.477926501000184,1733,976,385
5.480656368999917,1858,1968,673
5.483384694999586,2234,320,338
5.486115730000165,2571,33,164
5.4888455149994115,2716,752,279
5.492098964999968,2497,877,349
5.494806373999381,2101,448,239
5.497503741999935,1819,611,266
5.500198026999897,1871,2001,634
5.502888228999836,2194,747,431
5.5055797220002205,2548,27,192
5.5082726729997376,2751,349,189
5.510960124999656,2649,725,262
5.51365265899949,2322,942,322
5.516344818999642,2072,640,272
5.519034811999518,1993,2032,645
5.521724679999352,2193,937,467
5.5244135069997355,2516,21,208
5.527104957999654,2770,96,153
5.529800659999637,2813,1282,400
5.532492985999852,2543,3160,942
5.535182771000109,2238,299,426
5.5378729719996045,2112,944,443
5.54056425699946,2224,2083,720
5.54325366699959,2535,1070,530
5.545945242999551,2847,148,256
5.548635527999977,3015,655,307
5.551324103999832,2883,727,337
5.554014430999814,2593,1119,383
5.556707673999881,2416,630,320
5.559398583999609,2437,2198,705
5.56209065999974,2713,335,369
5.564779362000081,3149,848,432
5.567467562999809,3546,447,277
5.570155764999981,3627,597,273
5.572846299000048,3229,3870,1061
5.575536500999988,2837,171,422
5.578227326999695,2588,1564,578
5.580916529000206,2570,2128,777
5.5836043969993625,2773,1140,565
5.586293805999958,2994,0,210
5.588982632999432,3058,336,173
5.591671500999837,2830,1552,511
5.594361327000115,2509,1113,436
5.597052486999928,2370,696,356
5.599747313999615,2442,2230,745
5.602435347999744,2768,739,529
5.605125633000171,3197,112,254
5.607810792999771,3632,753,357
5.610501368999394,3680,613,287
5.613194820999524,3317,3179,863
5.6158803560001616,3059,775,545
5.618621806999727,2973,1697,656
5.621315382999455,3116,2176,793
5.62400533500022,3502,557,432
5.626694869999483,4010,231,251
5.629384070999549,4095,482,240
5.632074146999912,3873,2711,851
5.634763682000084,3435,781,507
5.637452592000045,3264,1012,501
5.64014225199935,3289,1939,737
5.642831619999924,3533,2230,887
5.645520820999991,3894,246,411
5.648211355999592,4095,400,263
5.650900515999638,4095,243,173
5.653590425999937,3772,2960,821
5.656280418999813,3391,501,434
5.658968744999584,3245,1804,669
5.661659655000221,3338,1275,569
5.664348772999801,3653,576,359
5.667036849999931,4027,374,243
5.669726092999554,4095,129,132
5.672415377000107,3817,4095,1125
5.675103786999898,3367,47,2277
5.67779382200024,3156,1449,1381
5.680485023000074,3160,1279,912
5.683173225000246,3356,2588,965
5.685862467999868,3600,192,429
5.688556002999576,3638,41,176
5.691246329000023,3433,368,150
5.693974404999608,3126,2329,640
5.696668314999442,2887,76,253
5.699359807999826,2762,1967,643
5.702056717999767,2769,262,349
5.704747669999961,2919,4,173
5.707434746000217,3183,1835,592
5.710123697000199,3312,1379,612
5.71281260700016,3987,4095,4095
5.715500475000226,3090,284,2366
5.718188342999383,2959,1715,1489
5.7208777949999785,2907,2608,1296
5.723565287999918,2932,1798,918
5.726256863999879,3002,194,414
5.728947357999459,3047,18,167
5.732522264999716,2928,1461,517
5.735221840999657,2743,834,2541
5.737914960000126,2593,999,1387
5.740606077999473,2554,2197,1165
5.743296278999878,2595,2459,1036
5.745987356000114,2723,128,438
5.748677599000075,2903,931,443
5.751367050000226,2992,2320,695
5.754058626000187,2923,4095,1313
5.756748535999577,2817,544,677
5.759438695999961,2722,1839,752
5.762127856000006,2644,649,531
5.764819098999396,2645,256,265
5.767509549999886,2722,463,249
5.770199042999593,2754,3,100
5.772889828000189,2699,4095,1301
5.775578279999536,2591,429,700
5.778269813999941,2474,2100,807
5.780962807999458,2384,1680,752
5.783655092000117,2393,1934,727
5.7863471270002265,2507,483,411
5.789038703999722,2627,752,343
5.791728487999535,2608,261,165
5.79441843999939,2542,229,145
5.797112682999796,2496,1486,465
5.799802175999503,2467,214,235
5.802495126999929,2450,2288,745
5.805186661999869,2513,16,297
5.807876071999999,2722,799,325
5.8106039399999645,2893,1018,400
5.813295015999756,2921,3150,896
5.816011258999424,2837,723,528
5.818702793999364,2731,157,272
5.821392578999621,2651,467,240
5.8240834469997935,2625,1342,413
5.826772397999775,2656,0,165
5.829461225000159,2645,153,114
5.832153176000247,2527,2403,739
5.834842502999891,2399,720,423
5.837533703999725,2306,1424,534
5.840224239000236,2264,1877,698
5.8429141489996255,2311,4095,1326
5.845603599999777,2437,0,493
5.848295551999399,2566,503,318
5.850986544999614,2559,411,225
5.853676453999469,2406,2229,611
5.856367822999346,2131,769,432
5.859057023999412,1818,367,272
5.8617494749996695,1639,636,364
5.864441968999927,1696,1632,2757
5.867130627999359,1965,928,1494
5.869821412999954,2148,128,631
5.872513114999492,2070,4095,1254
5.875202023999918,1863,0,463
5.8778937669994775,1616,2097,740
5.880586968999523,1396,2845,1013
5.883278544999484,1338,2226,890
5.885968787999445,1217,688,501
5.888659864999681,1056,560,313
5.891350400000192,750,480,214
5.894084976000158,245,1942,535
5.896779386000162,0,1027,471
5.899467503999404,0,2165,763
5.90215670499947,50,342,448
5.904846489999727,354,359,302
5.907536024999899,642,589,291
5.910225560000072,805,0,112
5.912916135999694,551,4095,1186
5.915605545999824,109,0,428
5.918295788999785,0,1877,637
5.920984864999809,0,1214,564
5.923675025000193,140,1906,658
5.926366226999562,295,499,385
5.929056094999396,223,878,354
5.93174354599978,0,381,176
5.934432913999444,0,561,240
5.937122115999955,0,627,283
5.939810858999408,0,1469,528
5.942501976999665,0,2453,871
5.945193595000092,0,467,431
5.9478838380000525,0,607,317
5.950619080999786,0,1344,443
5.953311823999684,0,2678,784
5.956004441999539,0,758,491
5.958693143999881,0,598,356
5.961384344999715,0,431,294
5.964074255000014,0,604,253
5.966763456000081,218,37,144
5.9694562829999995,591,1040,333
5.972147276000214,335,736,349
5.97483643599935,0,0,153
5.977527053999438,0,1680,525
5.980217837999589,0,2554,854
5.98291474799953,83,2919,1083
5.985613449999619,736,1411,772
5.988313983999433,1339,519,463
5.991004810999584,1335,1279,466
5.993695221000053,713,1771,568
5.996384963999844,240,823,410
5.999073997999403,102,839,396
6.001764992000062,593,658,320
6.00445561000015,1445,736,335
6.007198436000181,2000,0,155
6.009919637000166,2064,1462,414
6.01261271400017,1378,2833,857
6.015301415000067,613,240,341
6.0179924079993725,304,405,252
6.020681150999735,629,337,245
6.023371727999802,1557,1945,581
6.026064054000017,2303,1495,625
6.028755839000041,2547,3060,1005
6.031446416000108,2091,1229,578
6.034136741999646,1162,2058,661
6.03682852699967,496,1058,502
6.039521353000055,347,1269,533
6.0422133459996985,1010,1329,606
6.044906172999617,1986,212,337
6.047597415999917,2654,1188,463
6.050289533999603,2720,2615,794
6.052991484999438,2066,2223,821
6.055682019999949,1296,79,318
6.058371971999804,858,13,137
6.0610627149999345,1070,257,190
6.063751998999578,1895,1250,414
6.066443783999603,2602,1386,537
6.0691338609995,2816,2717,885
6.07182564499999,2289,1579,624
6.074517555000057,1415,11,221
6.077209506999679,885,529,222
6.079899290999492,944,2087,653
6.082631784000114,1679,1520,675
6.085324443999525,2418,289,353
6.0880165210001,2651,922,406
6.0907063889999336,2225,1451,482
6.093398172999514,1403,1971,598
6.096122500000092,832,79,235
6.098814410000159,571,787,337
6.101506361000247,822,172,209
6.104198811999595,1510,1257,464
6.106890054999894,2096,2196,752
6.10960167399935,2242,2352,847
6.112324707999505,1713,593,399
6.115018784999847,977,964,368
6.1177099030001045,447,51,167
6.120400478999727,470,976,347
6.123090805999709,1104,4095,1143
6.125780006999776,1776,3,464
6.128472917000181,2074,2463,832
6.131163451999782,1774,4095,1215
6.133855070000209,985,91,453
6.136549271000149,370,306,254
6.1392403479994755,110,1694,589
6.141931424000177,448,1325,597
6.144622666999567,1183,492,381
6.1473114939999505,1759,0,175
6.1500030699999115,1775,3184,843
6.152693729999555,1073,592,422
6.155384265000066,317,207,218
6.1580756739995195,0,623,244
6.16076641699965,17,938,368
6.163455201999568,645,2174,687
6.166145194999444,1305,114,323
6.168837563000125,1619,2911,885
6.171527347999472,1296,3526,1131
6.174220924999645,605,1211,678
6.176911542999733,87,11,250
6.179599493999376,0,2256,727
6.182290404000014,176,1488,667
6.184982021999531,759,1243,592
6.187672097999894,1235,2256,803
6.190364091999982,1379,4095,4095
6.193054876000133,787,437,2352
6.195743285999924,235,1828,1474
6.198433904000012,0,2294,1209
6.20112773099936,0,3008,1253
6.2038191820001884,367,787,673
6.206509507999726,883,1392,640
6.209202168000047,1242,4095,4095
6.211893202999818,1142,3184,3109
6.214635403999637,720,326,1482
6.217327313999704,409,189,656
6.2200191410001935,423,2941,1008
6.222709924999435,896,2842,1138
6.225399834999735,1584,528,592
6.228090494999378,2103,1978,821
6.230779904999508,2545,4095,4095
6.233469980999871,1920,1791,2723
6.236161806999917,1456,1222,1547
6.238852341999518,1167,3699,1566
6.241544084999987,1115,2084,1133
6.244234869999673,1350,70,487
6.2469259049994434,1637,1307,531
6.249616147999404,2055,4095,4095
6.2523068079999575,1543,1946,2839
6.25499684299939,1063,47,1307
6.257687418999922,697,854,750
6.260378703999777,623,3232,1136
6.263072321999971,932,4095,1561
6.265765481999551,1494,1665,1041
6.2684579749993645,1969,2899,1206
6.271148967999579,2327,4095,4095
6.2738396280001325,1840,163,2300
6.27653074599948,1490,19,976
6.279221363999568,1296,2726,1114
6.281913898999846,1397,2787,1182
6.284604599999511,1783,832,656
6.28729259299962,2235,1054,544
6.2899833780002155,3029,4095,4095
6.292673912999817,2413,906,2608
6.295366530999672,2145,172,1219
6.298098440000103,1871,796,714
6.300794224999663,1677,3594,1178
6.303483634999793,1712,2128,927
6.306174669999564,1904,1306,713
6.308866245999525,2173,4095,4095
6.311555655999655,2445,4095,4095
6.314246273999743,2185,208,2323
6.3169373499995345,1991,2937,1753
6.319626843999686,2035,4095,4095
6.322317336999731,1585,3498,3258
6.325007370999629,1687,188,1563
6.327698364999378,2035,1627,1072
6.330392482999741,2399,4095,3869
6.333085141999618,2593,557,2017
6.3357754689996,2449,308,938
6.338468836999709,2174,1273,742
6.341160371999649,2058,2047,829
6.343850655999631,2206,1888,752
6.346544858000016,2499,745,485
6.349239559000125,2727,4095,4095
6.351969343999372,2703,2832,3165
6.354663004000031,2431,473,1641
6.35735637200014,2091,1146,971
6.360047489999488,1849,2647,1043
6.362736649999533,1884,3006,1191
6.365428559000065,2192,682,656
6.36811951099935,2559,1319,662
6.370808670999395,2837,4095,4095
6.37350716399942,2688,903,2490
6.376198948999445,2378,432,1219
6.378887857999871,2059,2256,1104
6.38157747599962,1968,2221,959
6.384265969999433,2178,925,592
6.386955003999901,2459,1531,634
6.389645330999883,2758,4095,3665
6.392338116000246,2800,1503,2569
6.395030149999911,2544,509,1277
6.397722601999703,2267,244,592
6.400414095000087,2121,4095,3766
6.403103255000133,2223,2766,2448
6.405793623000136,2500,193,1163
6.408484323999801,2805,3472,1392
6.411174775999825,3314,4095,4095
6.413864268999532,2716,262,2338
6.416554427999472,2417,479,1150
6.419242797000152,2587,4095,4095
6.42193233099988,2159,4095,3741
6.4246210740002425,2430,589,1870
6.4273103179994,2829,2192,1378
6.4300069359997,3834,4095,4095
6.432698761999745,2944,765,2655
6.435387589000129,2622,293,1280
6.438077164999413,2326,1877,1006
6.440769533000093,2191,4095,1414
6.443459067999356,2315,2593,1167
6.446149518999846,2650,1223,772
6.448839095999574,2983,4095,3306
6.451528130000042,3132,4053,3500
6.454218414999559,2945,1115,1927
6.456911032999415,2631,1299,1143
6.459603817999778,2304,3041,1253
6.462297185999887,2158,1808,999
6.464988928999446,2288,750,555
6.467679505999513,2559,1197,534
6.470370082000045,2864,4095,4095
6.473061616999985,2785,590,2486
6.47575019299984,2583,80,1119
6.478440228000181,2345,1398,866
6.48113063799974,2085,2428,943
6.48382108900023,1917,1436,673
6.486513748999641,2000,1163,571
6.489204908999454,2325,4095,4095
6.491902193999522,2490,364,2362
6.494632519999868,2597,2417,1648
6.497326054999576,2434,367,752
6.500017172999833,2095,2976,1035
6.502707208000174,1974,2801,1105
6.505396783999458,1685,573,577
6.508087985999737,1927,2291,861
6.510779103999994,2864,4095,4095
6.513469179999447,2672,963,2670
6.516160381000191,2775,852,1443
6.51885270799994,2609,3104,1419
6.521545159000198,2183,4095,1803
6.524234818999503,1828,330,938
6.5269236459998865,1839,855,606
6.529614889000186,2357,4095,4095
6.532306922999851,2480,2847,3229
6.535029333000239,2781,321,1722
6.537743242999568,2714,66,759
6.5404378610001,2527,4095,4095
6.543129312000019,1828,4095,4095
6.545818972000234,1600,919,2211
6.548509006999666,1737,2687,1707
6.551200082999458,2345,4095,4095
6.553894951000075,2550,144,2370
6.556590819999656,2672,625,1218
6.559281187999659,2522,3489,1392
6.56197409699962,2097,3541,3334
6.564673881999624,1733,144,1654
6.567363416999797,1755,2322,1286
6.570056243000181,2593,4095,4095
6.57274744499955,2489,2566,3181
6.575435979999384,2745,1197,1884
6.5781270139996195,2646,3959,1757
6.580817465999644,2286,3839,2162
6.583510333999584,1811,2672,1523
6.586203034999926,1688,116,635
6.5888939870001195,1941,3659,1179
6.591583646999425,3004,4095,4095
6.594274514999597,2845,188,2384
6.596966798999347,2932,496,1189
6.599657583999942,2677,4095,1471
6.602347369000199,2185,4095,2367
6.605036029000075,1843,11,2319
6.607725437999761,1901,1511,1409
6.610416014999828,2218,4095,4095
6.613107215999662,2639,551,2160
6.615800833999856,2831,447,1066
6.618493952999415,2689,1840,931
6.6211876119996305,2301,2555,981
6.623881229999824,1859,1664,746
6.626595972999894,1797,1323,623
6.629290632999982,2138,4095,4095
6.632003834999523,2550,3869,3376
6.634696328000246,2946,1301,1994
6.6373865710002065,2930,1936,1338
6.640078356000231,2570,4095,1531
6.64276768199943,1966,3025,1371
6.645457216999603,1686,727,730
6.648148376999416,1845,1701,763
6.650838495000244,2514,4095,4095
6.653527820999443,2735,665,2524
6.656218856000123,2909,365,1225
6.65890968199983,2779,1637,960
6.661602133999622,2379,3139,1101
6.66429379300007,1968,1453,747
6.666982577999988,1922,1451,641
6.669674195999505,2165,4095,1492
6.672365356000228,2631,1259,1017
6.675054765999448,2943,354,528
6.677743342000213,2928,1059,475
6.680435334999856,2652,3533,1051
6.683124911999585,2346,2839,1075
6.685814862999905,2338,1254,725
6.688505230999908,2579,2889,1066
6.691196724999827,2848,3217,3111
6.693888758999492,2954,2736,2109
6.6965808360000665,2845,1468,1271
6.699270244999752,2685,4095,1776
6.701960405000136,2503,2762,3069
6.704649981999864,2458,721,1586
6.707338557999719,2570,0,661
6.710029009999744,3398,4095,4095
6.712720753000212,2752,1725,2817
6.715410746000089,2591,9,1328
6.718098446999647,2369,1968,1073
6.720789773999968,2389,4095,4095
6.723478183000225,2074,2559,3005
6.7261718849995304,2227,318,1446
6.728864378000253,2499,4074,1582
6.731556746000024,2995,4095,4095
6.734247573000175,2766,71,2306
6.736938023999755,2611,36,1004
6.739627224999822,2307,3755,1352
6.742318677000185,1883,2125,1072
6.745008752999638,1681,975,660
6.747698704999493,1785,1530,637
6.750391530999877,2461,4095,4095
6.753088315999776,2388,1183,2681
6.7557853509997585,2531,639,1403
6.758480468999551,2448,1968,1111
6.7611735869995755,2160,4095,1488
6.7638633719998325,1866,1862,993
6.766584614999374,1847,2159,935
6.769280065999737,2391,4095,4095
6.7719974760002515,2594,4095,4095
6.77468942699943,2608,175,2055
6.777381461999539,2609,545,1017
6.780072954999923,2352,3280,1235
6.782760739999503,1926,2322,1069
6.785454899999422,1744,187,435
6.7881460589997005,1895,1149,496
6.790836094000042,2214,4095,1183
6.793527628999982,2557,628,624
6.796219288999964,2642,168,302
6.798909072999777,2463,1722,605
6.801598232999822,2095,2992,971
6.804289392999635,1791,412,464
6.8069787610002095,1799,2229,747
6.809669837999536,2029,4031,1205
6.812359413999729,2387,1657,841
6.815062781999586,2619,165,365
6.817764816999443,2597,189,208
6.820458142999996,2363,2625,768
6.823148469999978,1968,1709,685
6.825841920999665,1841,1552,641
6.828542913999627,2000,3119,1079
6.83123328199963,2695,4095,4095
6.833925649999401,2638,1202,2641
6.836615976999383,2727,2470,1852
6.839304637000168,2613,4016,1713
6.841995171000235,2305,2128,1249
6.844686747999731,2099,80,499
6.847375741000178,2165,2333,788
6.8500663589993565,2587,4095,4095
6.852764184999614,2832,1150,2571
6.855454178999935,2969,223,1232
6.858144587999959,2689,1123,815
6.860837455999899,2231,4095,1296
6.863526240999818,1662,1872,945
6.866217484000117,1431,1504,750
6.868907768999634,1535,4095,1362
6.871595886999785,1907,4095,3479
6.874286296999344,2277,1430,2007
6.876975664999918,2381,1823,1326
6.879670700000133,2229,4047,1520
6.882494276000216,1872,1972,1135
6.885252393999508,1680,208,505
6.88798755300013,1809,2175,752
6.890684672000134,2617,4095,4095
6.893380581000201,2465,525,2576
6.896074491000036,2530,1194,1456
6.898764275999383,2368,4095,1652
6.901455227000042,2044,3647,3341
6.90414692899958,1778,397,1685
6.9068360049996045,1801,1149,982
6.90952970699982,2162,4095,4095
6.9122224080001615,2337,4095,3602
6.914916484000059,2531,927,1952
6.917609436000021,2471,631,1019
6.920301303999622,2234,4095,1554
6.922988296999392,1914,2755,1367
6.9256786649993956,1791,1220,850
6.928370366999843,1926,1466,731
6.931059984999592,2210,4041,1217
6.933753685999363,2503,643,649
6.93644588799998,2553,105,278
6.9391355059997295,2352,3107,974
6.941824415000156,1937,2308,876
6.944514241999968,1557,176,373
6.94720531799976,1493,581,274
6.949899227999595,1719,4095,1296
6.952590971000063,2242,1520,960
6.955279630999939,2599,819,611
6.957969498999773,2623,432,355
6.960659700999713,2288,3566,1029
6.963349109999399,1795,1875,819
6.96603964499991,1632,2277,891
6.968730179999511,1891,2868,1102
6.971420797999599,2460,4095,4095
6.974110790999475,2725,179,2368
6.9768011589994785,2815,253,1104
6.979492110999672,2626,2605,1142
6.982184353999401,2236,3683,1297
6.984876554999573,1983,1611,865
6.987565089999407,2055,1038,615
6.990255208000235,2461,4095,4095
6.99294486799954,2522,1149,2559
6.995634402999713,2589,706,1346
6.99832552099997,2434,1141,850
7.001016846999846,2153,3550,1225
7.003706131999934,1941,1216,713
7.006398208000064,2027,1328,629
7.009142034999968,2261,4095,1783
7.011862444000144,2534,4004,3463
7.014593728999898,2693,1317,1969
7.017287263999606,2598,1424,1190
7.020004881999739,2384,2687,1187
7.022693541999615,1979,2288,1056
7.025385492999703,1849,313,443
7.0280779439999606,1983,2155,715
7.030767354000091,2571,4095,4095
7.033459638999375,2529,399,2431
7.036149507000118,2586,1386,1437
7.038838833000227,2479,3319,1438
7.041529117999744,2202,1691,992
7.0442226109998956,1909,293,425
7.046912728999814,1812,629,305
7.049605555999733,1855,4095,1165
7.052313965999929,2155,2192,2919
7.055009666999467,2441,495,1488
7.05770186799964,2448,305,699
7.060394152999834,2141,1902,753
7.063082312999541,1440,1943,725
7.0657725559995015,1063,891,492
7.068462590999843,1181,189,244
7.0711525420001635,1779,3904,1072
7.0738424099999975,2597,245,490
7.0765357789996415,3043,220,272
7.079228187999433,2943,2418,784
7.0819208900002195,2396,2191,826
7.0846108409996305,1873,1915,743
7.087299668000014,1825,479,411
7.089991576999637,2497,4095,4095
7.092680695000126,2691,2116,2938
7.095369271999516,2955,1018,1653
7.098059347999879,2859,486,823
7.100749840999924,2500,3582,1203
7.103438293000181,2061,2514,1088
7.106129578000036,1901,16,417
7.1088207789998705,2086,4095,1174
7.111511688999599,2416,4095,3884
7.114201806999517,2615,155,1845
7.116913424999439,2523,112,816
7.119654500999786,2273,3935,1294
7.122369327999877,1989,1290,859
7.125064611999733,1902,31,333
7.127756688999398,2067,593,306
7.130448015000184,2307,3460,933
7.13314071700006,2476,876,560
7.135853542999939,2383,249,281
7.138619077999465,2117,362,257
7.141373861999455,1808,2957,852
7.1440785220002,1657,1168,570
7.146773306999421,1772,964,453
7.149468132999573,2477,4095,4095
7.152160085000105,2243,1845,2832
7.154849493999791,2273,3277,2146
7.157540571000027,2095,153,944
7.160231980999924,1777,3392,1219
7.162922056999378,1469,3439,1333
7.165615091999825,1387,482,653
7.168306126999596,1642,1375,639
7.171000620000086,2001,4095,3801
7.173696154000027,2277,317,1904
7.176387563999924,2271,299,890
7.179077265999695,2032,1919,869
7.181767049999507,1716,4095,1552
7.184459252000124,1579,2137,2963
7.187148537000212,1705,1496,1761
7.189838487999623,1988,4095,4095
7.192529189999732,2235,2353,2978
7.1952175579999675,2288,132,1424
7.19790813399959,2127,105,604
7.200599085999784,1855,2258,819
7.203290829000252,1603,2288,865
7.205982862999917,1614,656,474
7.208673815000111,1852,1360,599
7.2113639749995855,2187,4095,3899
7.214053925999906,2364,208,1839
7.216743877000226,2265,46,784
7.219434870999976,1973,2851,1061
7.222123863999514,1600,3702,3358
7.224814481999601,1424,495,1691
7.227501391999795,1595,1193,1017
7.230194134999692,1951,4095,4095
7.232888585999717,2231,1964,2713
7.235579121000228,2305,787,1456
7.238273696999386,2146,1717,1066
7.2409672739995585,1824,2687,1104
7.243658100000175,1511,991,677
7.246348801999375,1490,297,339
7.249041461000161,1695,2779,890
7.25173053799972,2427,4095,4095
7.254420948000188,2175,139,2370
7.257110898999599,2169,3538,1879
7.259799391999877,1982,4091,1771
7.2624880940002186,1642,2743,1438
7.265179295000053,1449,495,702
7.267868246000035,1581,3136,1069
7.270590197999809,1951,4095,4095
7.273283273999368,2192,1399,2629
7.275997850999374,2267,49,1231
7.2786876769996525,2128,532,656
7.281379586999719,1779,3760,1179
7.2840699549997225,1450,2032,911
7.2867584480000005,1436,857,579
7.289448816000004,1680,4095,1465
7.292138392999732,2031,3291,3263
7.294828385999608,2256,368,1703
7.297519253999781,2205,2579,1345
7.300214871999742,1931,3875,1466
7.3029065729997455,1492,2234,1155
7.3055981079996855,1251,880,675
7.30828855999971,1341,2359,838
7.310978636000073,1694,4095,4095
7.313668628999949,1968,470,2502
7.31635753899991,2027,2371,1743
7.319046823999997,1869,3834,1659
7.321736774999408,1585,3221,1472
7.324428725999496,1360,90,595
7.327115969999795,1401,1797,681
7.329806795999502,1990,4095,4095
7.332501246999527,1978,1649,2725
7.335191573999509,2162,2255,1829
7.3378843999998935,2075,1775,1198
7.340575268000066,1738,2751,1152
7.343263594999371,1316,1255,749
7.3459531709995645,1149,2483,906
7.3486442479998,1289,2401,977
7.351333157999761,1648,4095,3682
7.354024066999955,1984,1072,1981
7.356715434999387,2059,1957,1344
7.359405094999602,1866,2231,1125
7.362095921999753,1451,477,554
7.36479049799982,1146,422,341
7.367482323999866,1189,1172,468
7.370173401000102,1465,4095,1207
7.37286535200019,1881,806,694
7.375554094999643,2079,1088,538
7.37824446400009,1967,231,303
7.380934289999459,1612,2129,676
7.383623157999864,1157,1110,487
7.386313900999994,1007,787,366
7.389004102999934,1206,2773,873
7.391694887000085,1589,3391,1115
7.3943866310000885,1929,270,519
7.397076999000092,1998,38,222
7.399767574999714,1814,2662,801
7.402458317999844,1390,1813,782
7.4051474359994245,1085,74,304
7.407836929000041,1104,103,178
7.410527381000065,1364,4095,1114
7.413219123999625,1760,905,639
7.415907159000199,1915,1129,549
7.4186319020000155,1830,1732,656
7.421321894999892,1488,3024,992
7.424014387999705,1158,258,427
7.426703713999814,1101,846,387
7.429401040999437,1313,4095,1133
7.432092326000202,1715,2384,989
7.434782819000247,2032,1215,683
7.437471686999743,2001,416,361
7.440164138,1712,3156,971
7.442853130999538,1232,2256,901
7.445543373999499,949,1008,597
7.448233033999713,1075,1860,693
7.450920776999737,1515,4095,4095
7.453610769999614,1929,624,2466
7.4563013879997015,2071,47,1121
7.458993340000234,1899,4095,1547
7.461686707999434,1990,4095,4095
7.464377117999902,1206,1270,2599
7.467065568999715,1267,1203,1489
7.469756104000226,1702,4095,4095
7.4724476390001655,2117,4095,3472
7.475136256999576,2437,107,1725
7.477825582999685,2418,487,847
7.480516910000006,2113,3088,1101
7.483206070000051,1596,2035,933
7.485896020999462,1292,32,349
7.488585555999634,1327,196,208
7.491278882000188,1568,3664,983
7.493972124999345,1801,1082,643
7.4966622430001735,1767,1436,617
7.499350527999923,1509,1968,755
7.502041521000137,1093,398,387
7.5047314729999925,806,688,336
7.5074213409998265,855,484,286
7.510112416999618,1232,4095,4095
7.512803034999706,1631,919,2518
7.515491444999498,1866,3009,1885
7.518181188000199,1815,1600,1193
7.520872598000096,1501,2782,1172
7.523564882999381,1053,2026,930
7.526266541999576,890,1645,773
7.528957868999896,1096,3098,1093
7.531649486999413,1521,2960,1135
7.534339521999755,1915,1407,770
7.537030556999525,1966,39,313
7.539721174999613,1746,1826,627
7.542411458999595,1305,671,407
7.545101618999979,1045,175,182
7.54779186199994,1201,168,160
7.5504841049996685,1579,3947,1013
7.553174599000158,1968,1131,653
7.555864382999971,2189,34,272
7.558585459999449,2026,309,209
7.561278743999537,1619,2400,745
7.563993445999586,1221,2880,907
7.566686021999885,1179,18,339
7.569378223999593,1456,3945,1120
7.572070299999723,1914,3920,3407
7.574759584999811,2226,494,1757
7.577450578000025,2212,2896,1487
7.580140528999436,1925,2837,1328
7.582840271999885,1472,2768,1232
7.5855354320001425,1262,773,666
7.58822896699985,1420,1034,534
7.59091837699998,1766,4095,3907
7.593613577999349,2143,415,1901
7.596306030000051,2265,87,837
7.598995980999462,2117,2341,986
7.601687307999782,1741,4095,3778
7.605202257000201,1357,336,1808
7.6078972079994855,1329,1406,1134
7.610620992999429,1739,4095,4095
7.6133141939999405,2128,810,2178
7.616009395999754,2261,357,1042
7.618699847000244,2108,887,690
7.621401673999571,1727,2783,957
7.624099124999702,1338,1381,627
7.626784826999938,1325,368,323
7.629477694999878,1615,2488,768
7.632171479000135,2074,2891,977
7.634858596999948,2406,114,409
7.637548840999443,2413,78,193
7.640240249999806,2160,4095,1137
7.642929701999492,1733,2586,1065
7.6456214869995165,1545,934,652
7.648312479999731,1721,1645,660
7.651004388999354,2093,3873,1143
7.653695883000182,2448,650,628
7.656387084000016,2554,496,383
7.659076326999639,2417,1403,563
7.661766987000192,2057,4095,1212
7.664457062999645,1737,1346,743
7.667144473000008,1761,1141,591
7.669835007999609,2064,4095,4095
7.672525167999993,2421,2494,3054
7.6752145359996575,2602,161,1479
7.677903069999957,2490,227,672
7.680592939000235,2190,4095,1202
7.683284597999773,1906,2173,1009
7.685975049999797,1878,724,595
7.6886637509996945,2106,2585,912
7.691354368999782,2687,4095,4095
7.694044236999616,2695,374,2435
7.696733105999556,2675,2449,1751
7.699422431999665,2846,4095,4095
7.7021230499995,2077,2035,2822
7.704812543000116,1889,530,1403
7.707500952999908,2017,2304,1159
7.710192528999869,2650,4095,4095
7.712882439000168,2569,2509,3152
7.7155750989995795,2609,597,1700
7.718268300000091,2448,1542,1088
7.720960417999777,2160,4095,1507
7.723649619999378,1894,3020,1328
7.726338612999825,1988,511,668
7.729030313999829,2270,3133,1073
7.731716391000191,2657,4095,4095
7.734406175999538,2841,345,2102
7.737108501999501,2758,453,1047
7.7398091200002455,2485,3605,1298
7.7425008219997835,2171,1497,893
7.7451903149994905,2107,47,362
7.747885682999367,2320,1650,587
7.750620175999757,3056,4095,4095
7.753314835999845,2893,897,2559
7.7560091619998275,2885,880,1396
7.7586981969998305,2706,1006,827
7.761391064999771,2432,4095,1449
7.7640817659994354,2297,2882,2997
7.766772300999946,2384,1808,1862
7.769462086000203,2611,4095,1802
7.772152661999826,2807,4095,1744
7.774840863999998,2777,2335,1277
7.777531232000001,2543,854,714
7.780223017000026,2254,2715,993
7.782913635000114,1989,1968,863
7.78560466899944,1969,690,520
7.78829407899957,2160,1712,640
7.790982655999869,2371,4095,3869
7.7936722739996185,2465,437,1872
7.79636334999941,2346,555,944
7.799052259999371,2101,4095,1581
7.8017417529999875,1843,3339,3219
7.804432120999991,1780,1519,1826
7.80712119799955,1971,1200,1085
7.809811565999553,2238,4095,4095
7.812506016999578,2624,4095,4095
7.815196468999602,2243,305,2194
7.81788708699969,2033,1275,1290
7.820578580000074,2309,4095,4095
7.823268905999612,1665,3365,3238
7.8259586489994035,1754,126,1573
7.82865055899947,1989,1996,1216
7.831336593999367,2544,4095,4095
7.834027378999963,2187,373,2432
7.836719871999776,2005,74,1091
7.839409114999398,1752,1561,880
7.842100857999867,1584,3169,1078
7.844792517999849,1616,2528,3039
7.847481802999937,1807,1125,1693
7.85017217099994,2022,4095,1795
7.852862371999436,2103,2084,1289
7.855550614999629,2005,109,543
7.858240357999421,1821,1285,532
7.860929642999508,1679,4095,1216
7.8636193860002095,1717,1491,830
7.8663101709998955,1936,180,363
7.868999413999518,2178,2819,914
7.871687948999352,2585,4095,4095
7.874378108999736,2246,235,2341
7.87706930999957,2012,426,1122
7.879760802999954,1775,2995,1215
7.882450045999576,1609,2800,1184
7.885139330999664,1667,91,481
7.887828656999773,1906,1343,530
7.890517816999818,2362,4095,4095
7.893208309999864,2229,1351,2699
7.895898636999846,2083,962,1475
7.898624462999578,1851,1664,1035
7.901314748000004,1678,2231,989
7.904007033000198,1702,1354,671
7.9066966509999475,1920,1061,530
7.909391602000142,2213,3899,1170
7.91208463699968,2322,1917,899
7.914773171999514,2222,1333,637
7.917463830999623,1995,978,465
7.920152407999922,1757,3248,1005
7.922840858999734,1651,1642,825
7.925529768999695,1791,1118,620
7.928221471000143,2059,1520,627
7.930907588999617,2259,4095,1251
7.933599498000149,2261,2087,981
7.936290407999877,2081,86,395
7.93898290099969,1836,1781,658
7.941676435999398,1653,3792,1163
7.944367762999718,1683,434,527
7.947056588999658,1878,303,301
7.949746581999534,2098,2881,851
7.952435574999981,2188,4095,1207
7.955123318000005,2070,941,686
7.957813519999945,1840,161,304
7.960503887999948,1629,3387,987
7.963192131000142,1559,2224,943
7.965882081999553,1698,47,374
7.968572116999894,1934,861,410
7.9712616520000665,2448,4095,4095
7.973953269999583,2027,466,2450
7.976642388000073,1840,1192,1405
7.97933217299942,1633,3219,1429
7.9820223739998255,1773,4095,4095
7.984735283999726,1636,255,2315
7.987435359999836,1845,1979,1523
7.990129437000178,2307,4095,4095
7.992822305000118,2155,1683,2672
7.995510630999888,2002,1903,1704
7.9981997499999125,1808,48,706
8.000889492999704,1639,2544,944
8.003581985999517,1634,2749,1055
8.006274020999626,1835,323,503
8.00896492999982,2074,2889,978
8.011706589999449,2575,4095,4095
8.016354370000045,2123,1737,2723
8.01905390399952,1680,810,1402
8.021750064000116,1517,2273,1170
8.024441431999549,1571,1325,784
8.027135341999383,1817,934,559
8.029828001999704,2081,4095,1441
8.032520787000067,2198,2944,2606
8.035213570999986,2103,1787,1622
8.037904897999397,1892,178,705
8.040597641000204,1700,2479,898
8.043287216999488,1605,2425,986
8.045980043999407,1709,278,432
8.048671911999918,1935,1396,575
8.051361238000027,2128,4000,3408
8.054053023000051,2167,1091,1877
8.056743098999505,2029,34,807
8.059434050999698,1776,2262,915
8.062127918999977,1505,1968,784
8.064819037000234,1414,1167,580
8.067511614000068,1554,33,257
8.070204689999628,1760,4095,1273
8.072897224999906,1891,2346,2999
8.075588050999613,1837,54,1405
8.078279418999955,1630,46,591
8.080971954000233,1354,1501,626
8.083662029999687,1200,1798,694
8.086352649000219,1264,1545,642
8.089043224999841,1446,384,406
8.09173413499957,1654,4095,2658
8.094425752999996,1729,647,1499
8.097117788000105,1650,26,625
8.099809696999728,1465,578,401
8.102545148999525,1226,2661,859
8.10524039199936,1135,736,476
8.107964885000001,1314,21,219
8.110658335999688,1951,4095,4095
8.113351203999628,1877,740,2512
8.116043197000181,1968,335,1223
8.118733356999655,1793,1143,797
8.12142676700023,1454,3091,1094
8.124120092999874,1149,3280,1156
8.126851420000094,1074,1129,732
8.129549579999548,1157,4095,1275
8.132246613999996,1354,4095,4095
8.134940940999513,1409,192,2326
8.13763226699939,1247,912,1244
8.14032867700007,943,3345,1373
8.143018752999524,656,2861,1232
8.14571037099995,429,243,544
8.148400530999425,587,963,453
8.151089898999999,932,4095,1243
8.153781725999579,1360,496,580
8.15647542699935,1542,771,431
8.159164128999691,1429,1327,545
8.161854580000181,1099,1692,641
8.164546781999888,751,1125,481
8.167238232999807,715,1333,525
8.169929183999557,938,4095,1228
8.17262067699994,1347,1920,865
8.175310503999754,1651,2415,927
8.178003996999905,1655,223,422
8.180695989999549,1449,1438,531
8.183385399999679,1029,1646,639
8.186075726000126,825,1835,725
8.188766303000193,967,862,494
8.191454838000027,1360,1456,543
8.194145831000242,1801,2274,763
8.196837198999674,1949,69,319
8.199528274999466,1809,1353,511
8.202222267999787,1360,3231,943
8.204914135999388,926,1213,599
8.207603337999899,866,1808,677
8.210294872999839,1140,4095,1463
8.21298453199961,1675,1921,1141
8.215674942000078,2062,101,494
8.218367476999447,2043,432,305
8.221058927999366,1693,3711,1040
8.223752879999665,1122,3269,1187
8.226440955999351,836,890,688
8.229133198999989,977,3197,1128
8.231821192000098,1487,2559,3040
8.234509310999783,2067,801,1599
8.237198594999427,2294,1138,957
8.239888172000065,2137,1573,763
8.242611414999374,1557,1488,659
8.245302657999673,1046,603,400
8.248015692999616,982,11,166
8.250706560999788,1291,4095,1073
8.253397720000066,1934,955,650
8.256089296999562,2339,237,337
8.258780997999565,2293,1951,641
8.261472449999928,1872,3027,993
8.26416298499953,1253,1605,663
8.266851436000252,1004,1209,549
8.269540845999472,1186,2939,955
8.272230880999814,1738,4095,1563
8.274919124000007,2320,235,835
8.277607616999376,2512,85,368
8.280299817999548,2325,2522,803
8.282988769999974,1719,1643,725
8.285678346000168,1186,2163,784
8.288367547000234,1034,65,321
8.291057123999963,1498,4095,4095
8.293748783999945,2140,583,2425
8.296440526999504,2573,218,1159
8.299129811999592,2547,1487,894
8.301821387999553,2078,3728,1202
8.304513963999852,1399,1066,674
8.307204373999411,1136,841,480
8.309894950999478,1341,3545,1042
8.312584984999376,1993,2288,942
8.315272728999844,2619,75,403
8.317961304999699,2795,183,238
8.320650797999406,2506,2362,687
8.323341499999515,1822,2721,945
8.32603382599973,1353,790,560
8.328722819000177,1392,2259,813
8.331412603999524,1874,3291,3273
8.33410288899995,2513,1287,1948
8.33679192299951,2819,734,1054
8.339479874999597,2666,3497,1325
8.342168076000235,2089,4095,1553
8.344860318999963,1459,694,715
8.347548603999712,1315,1493,655
8.350240556000244,1712,4095,4095
8.352931423999507,2201,2731,3151
8.355620541999997,2672,310,1603
8.358310867999535,2741,87,695
8.361002736000046,2399,2320,861
8.36369206299969,1726,1886,789
8.366382264000094,1322,77,314
8.369072006999886,1387,1808,627
8.37176245899991,1855,3806,1131
8.374452576999829,2448,3008,1216
8.37714261200017,2703,243,568
8.37983164599973,2515,1437,591
8.382522638999944,1907,473,321
8.385214048999842,1376,64,139
8.387905333999697,1293,320,158
8.39063895199979,1584,1667,504
8.393331569999646,2179,801,404
8.39602314700005,2576,229,236
8.398714056000244,2605,272,219
8.401406090999444,2247,2384,713
8.404098459000124,1699,1345,576
8.406788285999937,1468,145,266
8.409480278999581,1585,2524,777
8.412171897000007,2000,1712,704
8.414860681999926,2481,246,339
8.417550590999781,2672,559,307
8.420243833999848,2480,1904,669
8.422935827999936,1917,2235,862
8.425627611999516,1458,99,334
8.428319146999456,1437,52,157
8.431008599000052,1772,4095,1050
8.433697882999695,2337,542,565
8.436395126000207,2671,108,267
8.439085035999597,2653,212,219
8.44177519599998,2287,1743,562
8.444467356000132,1744,2479,769
8.447155389999352,1566,843,465
8.449846216999504,1759,4095,1398
8.452538917999846,2239,3139,3179
8.455229494999912,2666,85,1535
8.457919654999387,2724,69,656
8.460609938999369,2448,2348,876
8.463299265999922,1897,3372,1157
8.465990883999439,1588,179,481
8.468682501999865,1679,128,234
8.471371702999932,2058,2949,844
8.47406211299949,2576,460,454
8.476752439999473,2861,243,274
8.47944093299975,2768,968,426
8.482131175999712,2298,1258,481
8.484821461000138,1771,688,336
8.487510494999697,1648,645,317
8.490199488000144,1871,3026,902
8.49288864800019,2353,2182,805
8.495577890999812,2753,79,352
8.498269967999477,2800,313,251
8.500960878000114,2480,2709,790
8.503657578999992,1902,2022,798
8.506409654999516,1627,1097,574
8.509154440000202,1798,240,304
8.511885058000189,2465,4095,4095
8.514675133999845,2721,731,2506
8.517408918999536,2879,114,1143
8.520140786999946,2670,2252,1067
8.52287019599953,2165,2017,897
8.525599564000004,1789,191,400
8.528331640999568,1834,1387,506
8.531060716999491,2173,4095,1290
8.533789377000176,2634,729,708
8.536515953000162,2865,1761,735
8.539242695999747,2766,1669,735
8.541970272000071,2363,2719,983
8.544701224000164,1902,1344,652
8.54743013299958,1792,2170,784
8.550162460000138,2016,4095,1441
8.552892785999575,2448,4095,3583
8.55562094600009,2774,907,1987
8.5583522299994,2783,1095,1131
8.561083765000149,2496,2989,1190
8.56381088299986,2051,2494,1062
8.566541334000249,1860,1396,752
8.569268368999474,2047,1958,818
8.57203261199993,2405,3481,1136
8.57476306299941,2736,1280,765
8.577494764999756,2779,268,368
8.58022788299968,2576,2443,807
8.582955250999476,2160,2449,921
8.585688201999801,1857,128,381
8.58842023699981,1916,842,381
8.591146605000176,2230,4095,1214
8.593876805999571,2675,862,657
8.596606798999346,2806,253,320
8.59933383399948,2749,896,393
8.602062909999404,2370,2993,933
8.604791820000173,2014,661,461
8.607518770999377,2002,2032,695
8.610249139000189,2603,4095,4095
8.612982048999584,2593,671,2581
8.615714083000057,2835,3247,1965
8.618445242999769,2800,924,1037
8.621175569000116,2499,2263,1015
8.623903478999637,2101,1872,835
8.626671096999416,1962,46,336
8.62939996499972,2151,1552,576
8.632131458000003,2499,4095,1230
8.634858118000011,2786,161,529
8.637585194000167,2799,133,249
8.640315103999455,2546,2294,737
8.643041305000224,2131,1263,632
8.645767506000084,1873,54,252
8.648498249000113,1939,35,139
8.651225159000205,2203,3077,831
8.653953776999515,2503,655,481
8.656684311999925,2610,342,299
8.659411220999573,2454,1088,483
8.662139381000088,2126,4095,1223
8.664868748999652,1889,1785,874
8.667596366999533,1888,666,533
8.67032598500009,2421,4095,4095
8.673054435999802,2426,4095,3380
8.675784262999514,2578,336,1750
8.678516588999628,2480,1600,1142
8.681246414999805,2185,4095,3867
8.684012783000071,1821,2912,2501
8.686753734999911,1744,785,1328
8.689485893999517,1949,3461,1453
8.692219011999441,2688,4095,4095
8.694945671999449,2459,423,2448
8.697675290000006,2435,1531,1461
8.700405282999782,2207,2512,1279
8.703132192999874,1865,3265,1369
8.705840601999626,1694,862,759
8.708531428999777,1827,1487,650
8.711220921999484,2107,2523,848
8.71391141499953,2336,975,578
8.716602991999935,2373,47,248
8.719293651000044,2231,1391,501
8.721984394000174,1931,1509,567
8.72467363800024,1692,641,342
8.727362214000095,1715,670,320
8.730054374000247,1920,3439,976
8.732743325000229,2180,1344,654
8.735431192999386,2277,659,400
8.738119185999494,2158,480,284
8.740810887999942,1919,3239,918
8.743501838999691,1663,2393,953
8.746192165999673,1628,705,553
8.748883449999994,1803,1135,531
8.751572234999912,2021,4095,1252
8.75426981199962,2185,528,645
8.756965470999603,2099,65,267
8.759655881000072,1856,144,177
8.762346040999546,1527,2768,768
8.765037366999422,1360,2061,761
8.767725943999721,1515,250,352
8.770416020000084,1818,4095,1182
8.773106638000172,2078,1394,742
8.775795798000217,2225,1230,572
8.778487915999904,1938,402,327
8.781178575999547,1693,2287,720
8.783869277000122,1457,2686,946
8.786592644999473,1455,618,505
8.789285846999519,1679,1650,663
8.791999547999694,1939,4095,1345
8.794689999999719,2064,489,656
8.797382283999468,1958,1216,576
8.800073153000085,1702,3507,1075
8.80276468699958,1422,1223,734
8.805456389000028,1329,679,445
8.808147714999905,1486,459,304
8.810837041999548,1741,4095,2688
8.813526742999784,1973,625,1481
8.816216110999449,2027,274,693
8.818904271000065,1937,1860,773
8.821594388999983,1755,4095,3705
8.824285048999627,1643,2965,2399
8.826972584000032,1744,896,1292
8.82966403499995,1995,4069,1478
8.832352819999869,2289,4095,3568
8.835042312999576,2422,219,1674
8.837729805999516,2288,86,715
8.840420173999519,1984,3440,1167
8.843109208999522,1664,2110,987
8.845800868999504,1531,635,557
8.84849169500012,1619,2317,772
8.8511808129997,1770,2200,806
8.853871305999746,1840,730,474
8.856562090999432,1719,37,206
8.859252292999372,1483,2021,646
8.861943369000073,1206,2277,791
8.86463419499978,1059,1621,652
8.867326146999403,1174,1154,527
8.870018806999724,1455,2315,782
8.872709215999748,1729,4095,1212
8.875397793000047,1829,815,671
8.878088243999628,1690,311,334
8.880779278999398,1420,2608,814
8.88346931399974,1195,1998,816
8.88616005699987,1218,744,495
8.88885100799962,1447,1923,670
8.891539709999961,1711,4095,3926
8.894230535999668,1830,842,2037
8.89691923800001,1776,1328,1200
8.899610396999378,1643,2412,1123
8.902304598999763,1446,3841,1315
8.904996174999724,1367,955,721
8.907721042999583,1503,1955,781
8.910459410999465,2039,4095,4095
8.91318969599979,1971,1001,2506
8.915966022000248,2000,1746,1610
8.918700682000235,1834,224,699
8.921433966999757,1535,2784,1001
8.92416383499949,1371,2590,1014
8.926891535999857,1356,1261,715
8.929621987000246,1578,3988,1242
8.932352105000064,1863,3200,1219
8.935081472999627,2032,1340,797
8.93780917499953,1978,590,467
8.940538543000002,1729,2241,784
8.943266786000095,1405,4063,1281
8.945994736999637,1314,743,2448
8.948726771999645,1510,944,1329
8.951453722999759,1834,1663,944
8.954183590999492,2031,437,448
8.95692154199969,1990,45,202
8.959653993999382,1780,556,285
8.962385445000109,1482,2529,727
8.965119104999758,1367,232,336
8.967850555999576,1504,1114,432
8.970616757000244,2025,4095,4095
8.973351458000252,2027,2112,2903
8.976082784999562,2053,1083,1652
8.9788116109994,1877,2866,1399
8.981542478999472,1587,2613,1232
8.984274888999607,1349,1962,951
8.987005465000038,1371,353,443
8.989735332999771,1607,2608,862
8.992467283999758,1872,3886,1200
8.995196943999872,2041,99,484
8.997928811999373,2009,1405,529
9.000660597000206,1813,2611,883
9.003389089999473,1555,1695,779
9.00612612399982,1474,394,378
9.008861659000104,1651,2013,667
9.011589568999625,1901,4095,3648
9.014374727999893,2114,811,1863
9.01713630499944,2087,592,955
9.019867172999511,1870,2301,988
9.022638206999545,1583,1907,806
9.02537082500021,1408,287,350
9.028103650999583,1491,48,181
9.030835102999845,1738,4095,1093
9.033565429000191,2032,1183,679
9.03629454699967,2128,507,399
9.039022748000207,1969,316,272
9.041751157999897,1651,2451,751
9.044480525999461,1357,1778,659
9.047209726999426,1354,1254,579
9.049941178999688,1585,4095,1220
9.052697088000059,1880,2157,1020
9.055453997999393,2101,1439,749
9.05819232399972,2094,624,457
9.060929817000215,1867,2268,751
9.063662560000012,1553,799,479
9.066396012000041,1444,824,394
9.06912938000005,1597,197,210
9.071860123000079,1889,4095,1111
9.074636198999542,2161,338,511
9.07737198399991,2176,1365,561
9.080104142999517,2007,3053,970
9.082833344999926,1570,2352,958
9.085566253999787,1331,122,375
9.088298081000175,1429,848,381
9.091030073999718,1817,4095,4095
9.093764567000107,2010,1472,2717
9.096496643000137,2111,1840,1698
9.09922630300025,1963,1181,1029
9.101959087000068,1643,2770,1113
9.104691538000225,1303,1803,832
9.107397239999955,1258,129,368
9.110091565999937,1472,4095,1296
9.112783683999623,1856,4095,3536
9.115472718999627,2137,315,1692
9.118166628999461,2128,2130,1232
9.120866538999508,1869,2766,1201
9.123563031999765,1429,1317,817
9.126257816999896,1305,30,309
9.128950184999667,1291,1594,531
9.131641635999586,1904,4095,4095
9.134378087000186,1994,4095,3813
9.137099871999453,2138,196,2446
9.13979044899952,1989,1312,1465
9.14250735799942,1628,2640,1218
9.145233393000126,1305,2175,1006
9.148019469000246,1286,503,525
9.150727962000019,1551,4095,1188
9.153423664000002,1967,1083,709
9.156117157000153,2199,176,330
9.158807566000178,2145,98,178
9.161501476000012,1823,2640,768
9.164195468999424,1406,2171,782
9.166885628999808,1254,1611,700
9.169577206000213,1429,2073,825
9.172269281999434,1838,4095,3575
9.174960274999648,2202,1072,1905
9.177651267999863,2270,1344,1168
9.180342927999845,2083,3232,1296
9.183034587999828,1650,639,694
9.185728581000149,1314,91,274
9.188421906999793,1344,1703,560
9.191112941999563,1979,4095,4095
9.193806393000159,2191,912,2540
9.196497636999993,2448,1685,1584
9.199188046000017,2357,1613,1078
9.201878830999703,1968,1385,783
9.20457074099977,1497,2484,896
9.207259941999837,1340,529,410
9.209952309999608,1542,4095,1431
9.212645052999505,2003,4095,3727
9.215337171999636,2418,878,1980
9.218028205999872,2493,2275,1446
9.22072024099998,2198,3561,1471
9.22341044299992,1637,4095,1567
9.226101518999712,1250,694,765
9.228792095000244,1323,1274,634
9.231483505000142,2101,4095,4095
9.234177997999723,2259,752,2567
9.236869282999578,2528,498,1327
9.239560733999497,2459,1955,1069
9.242251935999775,2045,2855,1167
9.244947886999398,1520,2371,987
9.247641463999571,1338,848,603
9.250333373999638,1840,4095,4095
9.253026616999705,2019,3680,3321
9.255717442999412,2512,456,1766
9.258408228000008,2651,2288,1333
9.26109859600001,2389,2507,1191
9.263787505999971,2258,4095,4095
9.266481165000187,1499,2401,2974
9.26917211699947,1549,1457,1772
9.271862484999474,1919,3813,1655
9.27458368599946,2433,2986,1410
9.27727817899995,2685,131,592
9.279996172999745,2571,191,326
9.2826914569996,2076,813,304
9.285383075000027,1546,71,135
9.288073984999755,1417,1043,353
9.290764727999886,1648,3083,905
9.29345601299974,2200,1328,641
9.296148005999385,2652,199,333
9.298836498999663,2704,112,184
9.301527867000004,2338,2929,863
9.304217693999817,1701,2077,786
9.306908311999905,1386,1296,589
9.309599555000204,1500,3285,1065
9.312292339999658,1968,1677,745
9.314983874000063,2506,2161,820
9.317675868000151,2738,440,445
9.320366651999393,2558,2323,783
9.323056604000158,1946,1483,690
9.32574717999978,1379,560,369
9.328436965000037,1292,368,235
9.331127999999808,1631,4095,1095
9.333819243000107,2320,656,593
9.336508653000237,2825,433,381
9.339199936999648,2864,322,229
9.34189159699963,2437,3394,944
9.344583839999359,1790,4095,1391
9.34727649999968,1468,2207,1097
9.349968200999683,1574,4095,1643
9.35265961099958,2102,4095,4095
9.35535002100005,2671,2391,2960
9.3580421810002,2819,1122,1652
9.360735215999739,2559,2880,1440
9.363424916999975,1875,3455,1430
9.366115535000063,1297,149,580
9.36882456999956,1216,362,287
9.371523854999396,1733,4095,4095
9.374219680999886,2321,403,2467
9.376914466000017,2735,80,1141
9.37960695899983,2707,994,765
9.382298618999812,2319,1087,571
9.384989569999561,1761,1759,607
9.387680271000136,1545,1555,613
9.390372181000203,1661,2815,938
9.393062008000015,2157,2983,1042
9.395750167000188,2633,1218,720
9.398440951999874,2736,227,322
9.401130987000215,2465,1571,532
9.403822021999986,1841,1666,620
9.406513347999862,1404,949,444
9.409204841000246,1453,211,239
9.411895043000186,1921,3454,960
9.414619701999982,2519,522,467
9.417312112000218,2803,1195,509
9.420005354999375,2661,1293,599
9.422694431999844,2150,3271,992
9.425385257999551,1586,292,410
9.428085460000148,1392,474,287
9.430773577999389,1618,2085,657
9.433464611999625,2246,761,429
9.4361553560002,2765,319,329
9.438847182000245,2849,1969,648
9.441537841999889,2471,2298,865
9.444229376999829,1783,1713,724
9.446921035999367,1401,1082,523
9.449610153999856,1445,321,283
9.452299397999923,1904,1255,401
9.454991515999609,2480,1520,521
9.457681717000014,2752,548,367
9.460372585000187,2700,157,208
9.463062036999872,2226,736,317
9.465753405000214,1722,53,135
9.468445980999604,1637,393,197
9.471137390999502,1917,2848,768
9.473830300999907,2498,625,419
9.476522459999615,2974,736,402
9.47921274500004,3013,271,245
9.482740153000123,2607,3103,880
9.48544252099964,1968,3654,1104
9.48813505599992,1629,2137,937
9.490827507000176,2113,4095,4095
9.493518749999566,2320,2170,2935
9.49621124299938,3029,4095,4095
9.498902403000102,2832,1852,2777
9.501594270999703,2626,631,1456
9.50428697299958,2146,3427,1451
9.506977340999583,1910,496,729
9.509670708999693,2044,4095,1431
9.512362409999696,2463,2838,1306
9.515051487000164,2947,3388,1389
9.517741605000083,3131,274,647
9.520433640000192,2959,1066,573
9.523122298999624,2479,764,375
9.525813291999839,2127,325,218
9.52850511899942,2149,1902,571
9.531194903999676,2402,1806,655
9.533886563000124,2850,1627,710
9.536580682000022,3088,1064,537
9.539275340999666,2978,2153,763
9.541966542999944,2608,537,439
9.544658243999947,2150,4095,1136
9.547350361999634,2035,1802,880
9.550040813999658,2255,2155,858
9.552733640000042,2750,1995,861
9.555423175000215,3332,116,382
9.558115709999583,3629,1866,704
9.560807578000095,3342,175,342
9.563497696000013,2718,1395,518
9.566189481000038,2337,179,214
9.56888218199947,2353,685,253
9.571573882999473,2709,207,164
9.574265292999371,3242,2433,731
9.576956035999501,3349,182,341
9.57964615399942,2881,1675,549
9.58233614799974,2123,643,368
9.585027056999934,1386,1732,511
9.587715758999366,1133,6,193
9.590405709999686,1327,1234,412
9.593097412000134,1824,976,370
9.59578577999946,2256,592,353
9.598477065000225,2350,1351,474
9.601169223999932,2118,982,421
9.603860383999745,2140,4095,4095
9.606579334999878,1340,544,2470
9.609272661999967,1408,214,1161
9.611987780000163,1746,1294,785
9.61468235600023,2192,278,395
9.617376141000022,2377,2398,775
9.620067508999455,2274,1808,741
9.62275879400022,1879,1369,574
9.625448994999715,1460,1147,464
9.62814136399993,1312,1298,511
9.630834814999616,1533,496,335
9.633528100000149,1918,637,303
9.636218675999771,2191,544,239
9.638910627999394,2203,1580,524
9.641602370999863,1968,371,330
9.644294196999908,1584,1055,394
9.646985814999425,1426,344,253
9.649675141999978,1553,753,291
9.652368009999918,1914,205,183
9.65505908599971,2325,1237,368
9.65775195399965,2483,1732,623
9.660443572000077,2369,2272,871
9.663135189999593,1968,375,391
9.665828225000041,1606,1055,383
9.668517510000129,1566,0,158
9.671207710999624,1764,778,277
9.673900830000093,2150,2267,739
9.676590613999906,2407,48,298
9.679280440999719,2390,1919,656
9.681973017000018,2080,1251,534
9.684663510000064,1581,2787,839
9.687352752999686,1313,625,468
9.690044621999732,1368,266,239
9.692736156000137,1736,526,265
9.695427148999443,2144,138,172
9.698119016999954,2244,327,225
9.700809760999618,2047,442,272
9.703499129000193,1489,2310,719
9.7061886219999,1014,251,333
9.708879822999734,983,411,265
9.711568024999906,1283,957,336
9.714258684000015,1869,3735,1051
9.716948677999426,2275,47,438
9.719638378999662,2323,2495,844
9.722329747000003,1875,2595,966
9.725020406999647,1296,2525,962
9.727711232999354,985,223,419
9.73040605999995,1071,272,218
9.733097552999425,1590,182,197
9.735786338000253,2173,755,298
9.738476913999875,2369,1595,546
9.741166490000069,2165,2259,803
9.743858359000114,1495,961,577
9.746574851999867,959,2035,685
9.749267385999701,884,1279,572
9.751978004000193,1281,147,247
9.754666080999414,2053,1759,570
9.757356698999502,2529,640,403
9.760047525000118,2553,667,368
9.762738018999698,2019,2867,910
9.765429844999744,1281,134,374
9.768121338000128,1001,3207,903
9.770809955999539,1205,2317,929
9.7735042409995,1984,4095,3787
9.776194733999546,2782,1648,2212
9.778883476999908,3151,485,1113
9.781574136999552,2928,570,615
9.784264296999936,2160,2161,768
9.78695303999939,1570,207,311
9.789643407999392,1466,1129,396
9.792335567999544,1904,1202,454
9.795026519000203,2638,955,415
9.797716721000143,3012,503,336
9.800454172000173,2849,1153,413
9.803144372999668,2019,1870,569
9.805835115999798,1069,419,272
9.808524275999844,659,0,112
9.811214810999445,855,177,119
9.813904386999639,1707,1644,526
9.81659575499998,2464,48,246
9.819285374000174,2715,1902,635
9.821975449999627,2357,1827,726
9.82466744300018,1451,3328,1053
9.827357686000141,837,65,379
9.830049053999574,777,140,192
9.832740713999556,1359,432,187
9.835431540999707,2272,1008,354
9.838124699999753,2724,164,223
9.840815734999524,2618,1685,565
9.84350681199976,1823,1063,496
9.846195805000207,977,398,266
9.84888750600021,665,0,115
9.851581957000235,930,1666,470
9.854274116999477,1781,3837,1115
9.856965234999734,2449,1792,893
9.859656352999991,2598,1871,847
9.862346805000016,2064,1830,784
9.865038715000082,1094,138,299
9.867727873999684,535,33,128
9.870418200999666,549,911,293
9.873110568999437,1243,226,199
9.875800811999397,2130,1143,384
9.87848955499976,2503,816,389
9.881179965000229,2288,1999,662
9.883869749999576,1376,2170,788
9.886589617999562,534,96,284
9.889283568999417,259,85,155
9.891997478999656,617,267,146
9.894688554999448,1509,1813,569
9.897381007000149,2155,285,333
9.900074082999708,2194,1205,474
9.90276490999986,1534,2271,781
9.905458193999948,576,131,299
9.90814956199938,86,545,256
9.910839888999362,144,1980,571
9.913529964999725,895,1955,743
9.91621991699958,1727,112,336
9.918909535000239,2020,1259,462
9.92160161099946,1682,2999,944
9.924292271000013,714,571,449
9.92698255599953,0,65,181
9.929672256999766,0,1243,400
9.932363124999938,285,1158,407
9.935053868999603,1107,213,249
9.937744445000135,1628,287,198
9.940435604999948,1618,748,278
9.943126805999782,944,2010,562
9.945819257999574,65,221,241
9.94850975099962,0,594,266
9.951203326999348,117,176,154
9.95389527899988,860,1668,533
9.956584646999545,1553,1219,533
9.959275680999781,1716,583,373
9.961965925000186,1296,2431,727
9.96465629300019,427,337,343
9.967346327000087,0,399,229
9.970036403999984,0,834,305
9.972726271999818,327,768,319
9.97541601499961,1056,124,192
9.97810788300012,1452,157,144
9.980798750999384,1337,4095,1362
9.983490077999704,679,644,2069
9.986201570999583,17,118,880
9.98890677199961,0,192,401
9.991599682000015,67,1260,464
9.994291299999531,624,1516,551
9.996983168000042,1094,178,282
9.999673035999876,1173,911,395
10.002363320999393,805,1891,625
10.00505281400001,187,370,309
10.007741141000224,0,362,223
10.010434009000164,0,272,155
10.01312633499947,270,845,310
10.01587157799986,736,2467,729
10.018621362999511,960,1369,640
10.021315313999366,817,2406,839
10.02401001599992,350,1136,586
10.026698466999733,0,1365,585
10.029389126999376,0,1045,496
10.032081452999591,254,1169,461
10.034771237999848,753,487,310
10.037462022999534,1074,481,293
10.040154223999707,1058,687,353
10.042845717000091,757,1456,529
10.045534334999502,358,86,219
10.048225327999717,211,80,128
10.050916987999699,396,779,268
10.05360673099949,808,1303,451
10.056297182999515,1155,221,246
10.058987133999835,1230,320,208
10.061678252000092,1040,3651,982
10.064369494999482,656,651,483
10.0670582799994,480,814,419
10.069748731999425,603,1325,503
10.07244022499981,946,421,277
10.075130258999707,1385,1189,459
10.077821252999456,1643,1767,614
10.080513412000073,1662,1241,559
10.083204155000203,1436,1763,628
10.085897898999974,1234,1730,635
10.08858922499985,1271,169,286
10.091278217999388,1519,736,300
10.093969503000153,1909,579,288
10.09665870400022,2237,150,195
10.099348238999482,2333,835,307
10.102039981999951,2187,1794,593
10.10473039199951,1917,481,349
10.107419551999556,1810,48,156
10.110109502999876,1895,1779,485
10.112801579999541,2132,610,305
10.115491363999354,2367,122,178
10.118182565999632,2470,641,262
10.12087185099972,2403,1395,469
10.123560760000146,2144,1074,447
10.126251877999493,1945,47,179
10.128941246999602,1954,21,112
10.131630365000092,2129,161,107
10.134322066000095,2406,915,285
10.137012893000247,2581,1067,432
10.139708718999827,2554,498,304
10.142432794999877,2322,500,293
10.145134497000072,2000,2300,671
10.147822656999779,1902,2256,849
10.150517607999973,1993,496,463
10.153210433999448,2259,528,304
10.155899927000064,2509,128,186
