time,y1,y2,y3
0.0060930540003028,2253,367,1922
0.008842851000736118,2192,1957,2752
0.011577774001125363,1473,3345,2033
0.014304903999800445,511,2612,2979
0.017034825999871828,14,4095,2290
0.01976495700000669,352,382,2384
0.022492129000966088,1423,2442,1705
0.025220175999493222,2932,53,743
0.02795159900051658,3821,4095,4095
0.030682229000376537,2782,2529,2707
0.03341827599979297,2275,3221,3101
0.03613174000020081,1998,4095,2482
0.03882453699952748,1899,3997,3275
0.04151370900035545,1879,1801,1994
0.04420238199963933,1989,614,981
0.046887012000297545,2256,4095,1201
0.04957760099932784,2032,848,2495
0.05226860599941574,1777,3522,1937
0.05495523699937621,1753,3646,3152
0.05764157500016154,2116,4095,4095
0.0603301230003126,1874,315,2339
0.06301679500029422,1913,523,1088
0.06570584200017038,2223,103,461
0.06839618100093503,2254,3789,3166
0.07108589400013443,1862,2995,2211
0.07377885800087824,1751,2549,2928
0.07646978000047966,1776,4095,2362
0.07919220199983101,1844,2241,2859
0.08188308299941127,1819,2016,1806
0.08457121299943537,2089,128,752
0.0872591770003055,2292,2901,1119
0.08994314099982148,1981,1715,2633
0.09265131299980567,1774,4095,4095
0.09535298499940836,1759,3699,3114
0.09804578200055403,2256,4095,4095
0.10074120500030403,1879,775,2341
0.10342987700096273,1922,235,1096
0.10611634000088088,2249,1217,892
0.10880588799955149,2163,1163,2480
0.11149460100023134,1829,3257,1867
0.11418064800091088,1749,2303,2880
0.11686957100027939,1783,4095,2239
0.11955615899933036,1855,922,2509
0.12224179000077129,1904,2097,1632
0.12492712899984326,2135,168,713
0.12761371700071322,2283,4095,1513
0.13030147300014505,1936,2266,2687
0.13299131200074044,1873,4095,4095
0.13567977499951667,1760,4095,2798
0.13836544799960393,2323,4095,4095
0.14105082800051605,1885,1169,2369
0.14375070800087997,1931,890,1254
0.14644521400077792,2266,4095,1484
0.14913551100107725,2102,98,2288
0.15182339100101672,1807,3126,1764
0.15451731400025892,1746,3140,3049
0.15720698599943717,1792,4095,2819
0.15990353300003335,1860,158,2309
0.1625934130006499,1909,2205,1526
0.16528545999972266,2175,83,637
0.16797563299951435,2640,4095,4095
0.1706641380005749,1899,2623,2759
0.1733526019997953,1753,3455,3207
0.17604260699954466,1761,4095,2509
0.17872961300054158,1833,4095,3393
0.18142070100111596,1887,1385,1894
0.1841072900006111,2000,886,1008
0.18679258700103674,2277,3938,1334
0.18948101000023598,2043,704,2351
0.19218363999971189,1788,3220,1824
0.19488289500077371,1750,3510,3120
0.19757835900054488,1936,4095,4095
0.20027019799999835,1867,36,2272
0.20295899499978987,1913,432,1015
0.2056484589993488,2379,39,428
0.20833454800049367,2459,3710,3137
0.21102147000055993,2017,2970,2150
0.21372539200092433,1841,2655,3013
0.21641502199963725,1810,4095,2363
0.21910348600067664,1838,2499,2962
0.22182436699949903,1890,1783,1779
0.22451687200009474,2064,404,809
0.22723604400016484,2279,2775,1099
0.22992700800023158,1981,1723,2555
0.23261813899989647,1774,4095,4095
0.23535060299946053,1750,3641,3044
0.23804281599950627,2193,4095,4095
0.24073740499989071,1872,784,2335
0.24342736899961892,1917,465,1141
0.2461153740005102,2243,808,796
0.24880396300068242,2159,1111,2501
0.25149426000098174,1822,3207,1869
0.2541792659994826,1744,2351,2937
0.25687685500088264,1777,4095,2245
0.25956873500035726,1845,1056,2544
0.262256031999641,1901,1886,1612
0.26494616300078633,2131,299,735
0.267635001000599,2288,4095,1520
0.27032221499939624,1931,2121,2624
0.27301026200075285,1904,4095,4095
0.27570043400010036,1755,3756,2803
0.27838673100086453,2287,4095,4095
0.28107544500016957,1879,993,2366
0.2837641589994746,1925,1101,1330
0.2864503729997523,2264,3897,1577
0.28913771199950133,2097,111,2197
0.2918430919999082,1801,3230,1743
0.2945438059996377,1744,2944,3103
0.29723731100057194,1788,4095,2543
0.29992910900000425,1854,195,2321
0.30261565600085305,1904,2163,1463
0.3053046610002639,2177,165,626
0.3079943329994421,2448,4095,4095
0.3106824639999104,1889,2597,2742
0.3133724270010134,1749,3571,3235
0.3160620159997052,1760,4074,2490
0.31874877200061746,1827,4095,3323
0.32143656900007045,1884,1250,1851
0.3241289079996932,1999,1122,1057
0.32681774599950586,2273,3583,1264
0.3295073350000166,2034,688,2366
0.3321955909996177,1783,3318,1842
0.3348830960003397,1744,3380,3066
0.3375706019996869,2032,4095,4095
0.34025781499985897,1860,9,2233
0.3429482370011101,1905,310,987
0.3456371180000133,2204,176,411
0.3483270819997415,2254,3975,3199
0.3510169199998927,1852,3216,2284
0.3537144679994526,1743,2874,2968
0.35640818100000615,1765,4095,2279
0.3590961040008551,1833,2395,2960
0.36181669200050237,1888,1527,1724
0.3645090310001251,2067,718,846
0.3672249120008928,2285,2991,1104
0.3699145419996057,1979,1622,2535
0.3726047140007722,1765,4095,4095
0.37529247000020405,1747,3377,2961
0.3779794750007568,2213,4095,4095
0.3806686059997446,1871,411,2242
0.38335686100072053,1919,529,1142
0.3860466580008506,2418,265,657
0.3887411220002832,2381,1335,2527
0.39142962699952477,1978,3137,1882
0.394132133000312,1829,2586,2931
0.3968310969994491,1809,3952,2215
0.3995222270004888,1851,1134,2547
0.40221139899949776,1891,1882,1617
0.40490048799983924,2117,342,755
0.40759270200032915,2281,4095,1501
0.410280332000184,1926,2237,2672
0.4129702959999122,1806,4095,4095
0.41565838499991514,1747,3414,2727
0.41834918200038373,2288,4095,4095
0.4210421040006622,1872,1011,2316
0.4237322349999886,1919,1453,1371
0.4264210319997801,2256,3456,1535
0.4291096209999523,2099,83,2225
0.431798293000611,1798,3264,1743
0.434484880999662,1740,2657,3061
0.43717309500061674,1781,4095,2523
0.43986243400104286,1850,229,2309
0.44255077300113044,1902,1930,1470
0.44523690300047747,2161,431,661
0.4479291999996349,2446,4095,4095
0.45061220600109664,1894,2555,2695
0.4533030860002327,1749,3851,3312
0.4559935920005955,1755,3982,2454
0.4586812640009157,1819,4095,4095
0.4613700610007072,1879,1162,2064
0.46405906600011804,1983,1301,1195
0.4667451549994439,2267,4095,1375
0.4694343690007372,2043,543,2299
0.4721258330009732,1780,3158,1779
0.474811463000151,1741,3133,2953
0.47749821900106326,1879,4095,4095
0.48018643199975486,1856,0,2233
0.48287618799986376,1904,473,990
0.4855677770010516,2193,126,418
0.48825915700035694,2258,4095,3279
0.49094699600027525,1862,2910,2206
0.49364958499973,1744,3058,2993
0.4963499650002632,1769,4095,2350
0.49903947100028745,1825,2677,3055
0.5017269760010095,1883,1487,1763
0.504414689999976,2045,1023,919
0.5071008619997883,2282,2752,1015
0.5098226589998376,1974,1517,2530
0.5125146230002429,1767,3270,2092
0.5152302540009259,1744,3079,2988
0.5179208009994909,2188,4095,4095
0.5206093890010379,1866,380,2261
0.5232974780010409,1908,336,1083
0.5259823169999436,2229,44,491
0.5286704059999465,2178,1508,2607
0.5313565360011125,1828,3157,1917
0.534043167001073,1741,2484,2856
0.5367307140004414,1774,4058,2182
0.5394203440009733,1840,1457,2647
0.5421066830003838,1895,1733,1630
0.544792688000598,2109,422,769
0.5474955270001374,2279,4095,1425
0.5501883659999294,1939,2061,2621
0.5528788299998268,2064,4095,4095
0.5555707519997668,1756,3283,2986
0.5582603820002987,2329,4095,4095
0.5609509300011268,1870,807,2299
0.5636393099994166,1915,1214,1307
0.5663276070008578,2422,3056,1298
0.5690163630006282,2291,212,2219
0.5717037430003984,1931,3151,1730
0.5743918730004225,1807,2627,2942
0.5770813790004468,1817,4095,2377
0.5797686759997305,1851,451,2375
0.582459139999628,1893,1809,1492
0.5851500620010484,2150,458,695
0.5878389839999727,2385,4095,4095
0.5905261150001024,1898,2481,2677
0.5932306619997689,1744,4095,3369
0.5959472510003252,1747,3783,2445
0.5986554640003305,1987,4095,4095
0.6013560949995735,1878,1168,2110
0.604053142000339,1983,1454,1257
0.6067466059994331,2271,4092,1335
0.6094412359998387,2043,729,2324
0.6121353250000539,1781,3184,1794
0.6148304560010729,1744,2995,2966
0.617527460999554,1942,4095,4095
0.6202221750008903,1856,0,2239
0.622913597000661,1904,272,983
0.6256106439996074,2201,209,426
0.628306941000119,2247,3703,3152
0.6309988220000378,1856,2928,2123
0.6336972440003592,1744,2624,3021
0.6364193740009796,1766,4095,2339
0.6391936300005909,1834,2592,3038
0.6419336350008962,1888,1504,1744
0.6446705159996782,2085,640,853
0.647406146999856,2285,3360,1264
0.650141235000774,1955,1949,2608
0.6528755740000634,2081,4095,4095
0.655608580000262,1753,3533,3047
0.6583413770003972,2359,4095,4095
0.6610798410001735,1871,877,2322
0.6638182219994633,1925,1479,1373
0.6665512270010368,2257,4090,1574
0.6692901080004958,2080,127,2251
0.6720280720001028,1794,3276,1777
0.6747638689994346,1747,2725,3008
0.6775154160004604,1799,4095,4095
0.6802589630005969,1863,7,2243
0.6829935519999708,1909,208,975
0.6857329739996203,2209,141,417
0.6884718550008984,2229,2953,2991
0.6912389440003608,1847,3056,2108
0.6939738239998405,1746,2307,2979
0.6967067879995739,1776,4095,2237
0.6994445439995616,1842,1606,2701
0.7021778830003313,1900,1639,1617
0.7049151379997056,2123,655,805
0.7076526020009624,2288,4095,2254
0.710389732999829,1929,2270,2666
0.7131298220010649,1727,4095,4095
0.715868285000397,1758,3716,2736
0.7186007079999399,2171,4095,4095
0.7213407550007105,1879,1089,2177
0.7240800939998735,1973,1325,1264
0.7268144330009818,2272,4083,1366
0.7295533970009274,2038,763,2378
0.7322969020005985,1781,3325,1843
0.7350308660006704,1748,3154,2974
0.737768787999812,2083,4095,4095
0.7405077100011113,1869,193,2255
0.7432706330000656,1915,361,1074
0.7460058050000953,2359,59,455
0.7487410600006115,2686,1323,2512
0.7514749410001968,2107,3216,1875
0.7542082380005013,1850,2375,2930
0.7569454940003197,1795,4095,2301
0.7596807909994823,1831,853,2512
0.7624179220001679,1877,1920,1598
0.7651543850006419,2130,674,812
0.7678896409997833,2294,4095,4095
0.7706659800005582,1901,2511,2700
0.7734536520001711,1754,3745,3301
0.7761912410005607,1762,4095,2458
0.7789198720001878,1837,3625,3222
0.7816500019998784,1889,1370,1859
0.7843783410007745,2042,1169,1034
0.7871058470009302,2281,2775,1081
0.7898744770009216,1998,1451,2544
0.7926046490010776,1776,3796,4095
0.7953511970008549,1755,3267,3035
0.7980902859999333,2237,4095,4095
0.8008220410010836,1874,609,2247
0.8035502969996742,1920,992,1250
0.8062787600010779,2254,2411,1152
0.8090082239996264,2129,205,2194
0.8117363969995495,1814,3184,1719
0.8144620269995357,1749,2404,2989
0.8171890329995222,1787,4095,2462
0.8199157880007988,1856,347,2348
0.8226413350002986,1907,1855,1400
0.8253683830007503,2175,496,665
0.8280968050003139,2688,4095,4095
0.8308215600009135,1885,2591,2710
0.8335488160009845,1739,3338,3232
0.8366413639996608,1772,4095,2467
0.8393587860009575,1840,2736,3061
0.8420569999998406,1898,1699,1791
0.8447563390000141,2108,592,886
0.8474515520010755,2285,4095,1444
0.8501384739993227,1953,2093,2619
0.8528269380003621,2141,4095,4095
0.8555179440008942,1763,3729,2999
0.8582079490006436,2378,4095,4095
0.8609003710007528,1882,745,2278
0.8635922930006927,1924,1119,1289
0.8662809649995324,2256,2484,1269
0.8689695129996835,2127,150,2202
0.8716618929993274,1818,3251,1735
0.8743506070004514,1747,2322,2975
0.877040321000095,1789,4095,2399
0.8797306180003943,1858,540,2411
0.8824196650002705,1904,1992,1535
0.8851077119998081,2157,559,752
0.8878020510001079,2289,4095,4095
0.8904943899997306,1910,2361,2673
0.8931858529995225,1759,4095,3454
0.8958754840004985,1763,3761,2448
0.8985637810001208,2101,4095,4095
0.9012529949995951,1887,1108,2149
0.9039447920004022,1968,1458,1281
0.9066328389999398,2274,4095,1463
0.9093228860001545,2071,423,2321
0.9120117250004114,1792,3287,1813
0.9146996470008162,1751,2961,2990
0.9173869860005652,1794,4095,4095
0.9200750330001028,1868,75,2291
0.9227630380009941,1909,820,1120
0.9254516269993474,2194,312,495
0.9281390079995617,2327,4095,4095
0.9308254299994587,1840,2842,2502
0.9335154350010271,1357,3185,3215
0.9362051490006706,1016,4095,2462
0.938899112999934,1290,3194,3187
0.9415916180005297,2135,1310,1867
0.9442926650008303,3487,1397,1119
0.946988338000665,4095,2821,1148
0.9496798010004568,3375,1501,2503
0.9523682649996772,2544,3216,1863
0.9550535620001028,2097,2972,2851
0.9577399429999787,2257,4095,4095
0.960436531000596,1843,32,2140
0.9631268289995205,1856,151,975
0.9658493759998237,2177,103,409
0.9685403809999116,2176,2391,2862
0.9712292200001684,1833,2955,1999
0.9739187249997485,1744,2448,2901
0.9766106059996673,1782,3952,2241
0.9793009029999666,1851,1436,2672
0.9819872419993771,1905,1591,1588
0.9846769970008609,2103,607,807
0.9873717940008646,2293,3769,1301
0.9900637999999162,1965,1894,2605
0.9927549719996023,2125,4095,4095
0.9954449359993305,1763,3631,2990
0.998138941000434,2363,4095,4095
1.0008861969999998,1879,609,2271
1.0036042440005986,1920,1008,1259
1.0062956660003692,2258,2705,1372
1.0089851720003935,2124,240,2255
1.0116745100003754,1818,3123,1754
1.014363766000315,1751,2417,2944
1.0170535209999798,1791,4095,2362
1.0197580679996463,1859,537,2391
1.0224524910008768,1909,1959,1523
1.025144913000986,2161,528,722
1.0278384180001012,2309,4095,4095
1.0305341740004224,1913,2624,2736
1.033227762000024,1762,3475,3251
1.0359182680003869,1770,4095,2461
1.0386131480008771,2001,4095,4095
1.0413092790004157,1889,1217,2158
1.044019909000781,1986,1335,1251
1.0468044570006896,2283,3881,1424
1.049541587000931,2053,934,2350
1.052237801000956,1791,3247,1821
1.0549247230010224,1757,3364,2983
1.057617062000645,1985,4095,4095
1.0603075260005426,1872,0,2155
1.06299769799989,1915,46,929
1.0656904530005704,2222,171,399
1.0683843749993684,2241,2978,3026
1.0710717980000481,1857,2944,2090
1.0737625950005167,1757,2799,2938
1.0764520579996315,1779,4095,2288
1.0791399810004805,1843,2205,2896
1.081865778000065,1903,1586,1709
1.084554532999391,2093,573,818
1.0872452889998385,2295,3141,1143
1.0899391689999902,1984,1714,2550
1.0926268410003104,1775,4095,4095
1.0953301379995537,1762,3060,2999
1.0980304360000446,2256,4095,4095
1.1007212330005132,1885,447,2223
1.1034107380000933,1923,942,1215
1.1060977020006248,2254,1326,899
1.108785832000649,2165,882,2402
1.1114742129993829,1836,3056,1806
1.1141624680003588,1761,2382,2914
1.116851515000235,1794,4089,2259
1.1195402710000053,1862,962,2532
1.1222293179998815,1934,1740,1567
1.1249186980003287,2138,578,777
1.1276166620009462,2467,4095,1535
1.1303109590007807,1785,2310,2609
1.133001840000361,1535,4095,4095
1.1356928040004277,1535,3697,2722
1.1383816420002404,2137,4095,4095
1.1410704810004972,1821,832,2290
1.1437587370000983,1911,1398,1329
1.1464464500004397,2272,4095,1466
1.1491349560001254,2112,39,2221
1.1518252109999594,1814,3191,1746
1.1545084669996868,1760,2819,2970
1.1572023890003038,1793,4095,2471
1.1598960190003709,1849,235,2321
1.1625840659999085,1911,1855,1356
1.1652736550004192,2182,397,634
1.1679605360004643,2559,4095,4095
1.170648290999452,1902,2503,2595
1.1733386300002167,1761,3447,3261
1.1760286770004313,1771,3899,2480
1.1787148490002437,1837,4095,3381
1.1814025630010292,1897,1251,1853
1.1840911519993824,2006,1421,1140
1.1867782410008658,2287,3408,1253
1.1894674129998748,2054,1038,2384
1.1921545850000257,1792,3151,1826
1.194852090000495,1754,2977,2960
1.1975433040006465,1933,4095,4095
1.2002317259994015,1873,0,2240
1.2029200230008428,1915,115,974
1.2056099040000845,2218,169,432
1.2082979509996221,2261,3664,3147
1.2109851650002383,1869,2874,2113
1.213674919999903,1760,2815,3026
1.2163635510005406,1776,4095,2295
1.2190508889998455,1843,2559,3031
1.2217391859994677,1904,1466,1728
1.224430358999598,2076,912,885
1.2271211139996012,2301,2850,1132
1.2298471610010893,1999,1557,2528
1.2325385000003735,1781,4095,4095
1.2352545049998298,1761,2958,2931
1.2379444279995369,2211,4095,4095
1.2406415999994351,1884,463,2222
1.2433312720004324,1921,719,1167
1.2460189440007525,2249,635,802
1.2487079490001634,2181,1264,2513
1.2513992879994476,1837,3170,1877
1.254088044001037,1754,2462,2953
1.2567792989993904,1790,4095,2256
1.2594713880007475,1856,1136,2559
1.2621673100002226,1906,1716,1567
1.264862940999592,2134,547,765
1.2675536959995952,2304,4095,1507
1.2702417430009518,1947,2206,2641
1.2729361649999191,1835,4095,4095
1.275629129000663,1767,3571,2813
1.2783155930010253,2310,4095,4095
1.2810049319996324,1885,809,2291
1.2836938119999104,1933,1470,1365
1.2863836090000405,2282,3749,1535
1.2890734480006358,2112,91,2243
1.2917619950003427,1811,3369,1777
1.2944477510009165,1754,2773,3117
1.2971364229997562,1793,4095,2507
1.2998258030002035,1863,353,2358
1.3025130999994872,1915,1961,1467
1.3051998970004206,2182,459,671
1.3078889440002968,2383,4095,4095
1.310577533000469,1879,2526,2650
1.3132678719994146,1359,3681,3216
1.3159557529997983,958,3760,2334
1.3186455499999283,1181,4095,3470
1.3213361380003334,1995,1197,1891
1.3240246019995539,3270,1535,1219
1.3267107739993662,4095,4095,1392
1.329399446000025,3475,685,2297
1.3320898689999012,2602,3223,1758
1.3347774570011097,2125,2989,2897
1.3374642960006895,1995,4095,4095
1.3401528850008617,1851,0,2228
1.3428406399998494,1867,216,972
1.3455289369994716,2163,239,437
1.3482171510004264,2243,4095,3312
1.3509060729993507,1856,2859,2239
1.3535934960000304,1744,3119,3217
1.3562945840003522,1776,4095,2415
1.3589784230007353,1844,2738,3071
1.361668137000379,1904,1303,1709
1.3643586840007629,2066,1348,976
1.367047273000935,2303,2499,1106
1.3697368619996269,2007,1606,2529
1.3724270750008145,1779,3281,2085
1.3751148720002675,1758,2917,2963
1.3778365449998091,2145,4095,4095
1.3805266750005103,1879,165,2193
1.3832414720000088,1995,621,1136
1.3859301860011328,2247,87,485
1.3886213580008189,2199,1587,2634
1.3913105720002932,1845,3069,1917
1.3939980770010152,1746,2240,3017
1.3966864160011028,1781,4095,2272
1.399375004999456,1852,1389,2644
1.4020615099998395,1904,1699,1603
1.404748766000921,2128,598,797
1.4074361460006912,2310,4095,1430
1.410122985000271,1958,1961,2610
1.4128180740008247,2079,4095,4095
1.415508203999707,1761,3489,2997
1.4181974180010002,2375,4095,4095
1.420885339999586,1891,767,2299
1.4235732209999696,1929,1189,1314
1.4262606430002052,2272,2770,1387
1.4289501479997853,2141,150,2205
1.4316407790010999,1817,3315,1747
1.434357825999541,1749,2431,2926
1.4370857899994007,1791,4095,2401
1.4398541290011053,1862,583,2439
1.4425538430004963,1913,1731,1403
1.4452475150010287,2192,382,644
1.4479510620003566,2609,4095,4095
1.4506423590009945,1904,2640,2746
1.453333155999644,1757,3664,3282
1.456023537000874,1769,4095,2496
1.4587090000004537,1838,4095,3376
1.4613991719998012,1899,1267,1889
1.4640914280007564,2018,1456,1152
1.4667798080008652,2297,3807,1203
1.4694704390003608,2055,961,2384
1.4721600690008927,1792,3350,1862
1.4748480750004092,1753,3150,3027
1.477537705000941,2093,4095,4095
1.4802297109999927,1875,16,2206
1.4829190489999746,1922,145,961
1.485609471999851,2229,191,400
1.4883015190007427,2272,3535,3169
1.4909895660002803,1867,2832,2167
1.4936780299995007,1753,3021,3087
1.4963670350007305,1776,4095,2361
1.4990534160006064,1845,2387,2942
1.5017430459993193,1903,1431,1698
1.5044304679995548,2080,883,853
1.507118765000996,2471,2549,1046
1.5098483540004963,1943,1535,2480
1.5125435680001829,1565,4095,4095
1.5152369480001653,1555,3198,2881
1.5179278699997667,2106,4095,4095
1.520618459000616,1814,368,2237
1.5233080480011267,1902,807,1190
1.5259933870001987,2255,215,782
1.5286828509997576,2197,1296,2496
1.5313722730006702,1844,3142,1839
1.534059903000525,1756,2338,2911
1.53674890900038,1783,3955,2215
1.539437456000087,1856,1110,2559
1.5421279610000056,1908,1717,1555
1.5448174670000299,2141,511,746
1.5475096390000544,2315,4095,1569
1.5501980610006285,1949,2277,2650
1.5528845250009908,1968,4095,4095
1.5555756550002116,1759,3942,2775
1.5582600359994103,2347,4095,4095
1.560949791000894,1888,896,2303
1.5636398380011087,1933,1350,1329
1.5663289269996312,2287,3693,1521
1.5690179739995074,2123,89,2195
1.5717072709994682,1814,3306,1751
1.57439931800036,1751,2734,3106
1.5770931150000251,1791,4095,2509
1.5797827879996476,1861,344,2372
1.5824706260009407,1914,1887,1471
1.5851584230003937,2191,527,688
1.5878473869997833,2605,4095,4095
1.5905361429995537,1909,2523,2707
1.593224440000995,1757,3694,3343
1.5959116119993269,1763,4095,2466
1.5985996590006835,1840,4095,4095
1.6012880399994174,1894,1146,2112
1.6039762950003933,2000,1375,1247
1.6066729670001223,2300,4095,1487
1.6093642640007602,2071,815,2342
1.6120524359994306,1791,3241,1814
1.6147396920005122,1750,3317,2961
1.617426864000663,1968,4095,4095
1.6201130780009407,1871,35,2244
1.6227992910007742,1918,345,989
1.6254875470003753,2226,199,443
1.628174677000061,2307,4095,4095
1.6308615159996407,1875,2970,2507
1.6335493130009127,1749,2922,3154
1.636240235000514,1774,4095,2389
1.6389298659996712,1841,2917,3125
1.6416209960007109,1902,1441,1787
1.6443102520006505,2064,1207,976
1.646998423999321,2301,2644,1041
1.6496894289994088,2016,1467,2514
1.6523770599997079,1776,3327,1948
1.6550672320008744,1755,2895,2926
1.657756361999418,2182,4095,4095
1.6604474930009019,1879,221,2169
1.6631389150006726,1933,304,1040
1.665850003999367,2256,57,433
1.6685405509997508,2224,1903,2765
1.6712332229999447,1844,3095,1982
1.6739226040008361,1750,2589,3028
1.6766130260002683,1779,4095,2335
1.679302447999362,1853,1448,2658
1.681990577999386,1906,1706,1632
1.684678375000658,2128,476,771
1.6873664220001956,2319,4095,1345
1.6900536360008118,1965,1990,2609
1.6927404750003916,1887,4095,4095
1.695428188999358,1248,3494,2971
1.6981151939999108,2198,4095,4095
1.7008026580006117,2749,753,2421
1.7034923720002553,4095,1162,1392
1.7061811269995815,4095,2608,1406
1.7088699659998383,4095,325,2320
1.7115579719993548,3315,3217,1786
1.7142446439993364,2635,2315,2942
1.7169321490000584,2205,4095,2302
1.7196189050009707,1983,711,2475
1.7223049519998312,1894,1868,1568
1.7249941240006592,2115,435,719
1.727683712999351,2273,4095,4095
1.7303713849996711,1893,2317,2652
1.7330589730008796,1740,4095,3315
1.7357510210003966,1750,4012,2462
1.7384400680002727,2218,4095,4095
1.7411265730006562,1895,1184,2222
1.7438174119997711,1968,1441,1296
1.7465037090005353,2306,4095,1589
1.7491921310011094,2103,341,2213
1.75187817799997,1807,3247,1759
1.7545683500011364,1751,3033,3014
1.757258355999511,1793,4095,4095
1.7599456110001483,1867,111,2271
1.7626367419998132,1921,1143,1167
1.7653245390010852,2209,286,540
1.7680164610010252,2378,4095,4095
1.7707064250007534,1891,2822,2535
1.7733950140009256,1753,3459,3282
1.776084561000971,1767,4095,2492
1.7787716910006566,1840,3561,3274
1.7814614050003001,1901,1328,1887
1.7841498689995205,2033,1417,1126
1.7868388740007504,2315,3396,1116
1.7895269630007533,2043,1072,2423
1.792216551999445,1786,3357,1862
1.7949035569999978,1753,3115,2923
1.7975905630009947,2096,4095,4095
1.8002776100001938,1875,0,2256
1.8029635740003869,1924,79,982
1.8056532459995651,2247,176,419
1.808341793001091,2267,3063,3098
1.8110294649995922,1856,2939,2110
1.8137167200002295,1749,2389,3037
1.816404892000719,1776,4095,2346
1.819090397999389,1847,2113,2877
1.8218123200003902,1905,1637,1713
1.8245027009998012,2106,528,789
1.8272156639995956,2320,3086,1161
1.8299058369993872,1986,1807,2559
1.8325961339996866,2067,4095,4095
1.8352851390009164,1753,3380,3023
1.8379738950006868,2267,4095,4095
1.8406646919993364,1885,688,2288
1.843354905000524,1932,785,1192
1.8460422860007384,2273,1392,1091
1.8487304160007625,2148,914,2381
1.8514175470008922,1830,3155,1813
1.854106844000853,1747,2402,2994
1.856795724001131,1781,4095,2307
1.8594829800003936,1857,1008,2545
1.862173609999445,1910,1924,1599
1.8648614489993633,2159,493,762
1.8675512879999587,2321,4095,1571
1.8702364599994326,1940,2279,2653
1.8729238400010217,1776,4095,4095
1.8756115539999882,1761,4040,2707
1.8782982680004352,2327,4095,4095
1.8809873980007978,1891,903,2320
1.883674570999574,1937,1350,1346
1.8863609090003592,2374,4095,1497
1.8890481230009755,2182,111,2139
1.8917353369997727,1641,3262,1713
1.8944246760001988,1535,2787,2928
1.8971148479995463,1648,4095,2475
1.8998056870004802,1782,243,2330
1.9024931919993833,1880,1762,1360
1.905183073000444,2190,523,658
1.9078706609998335,2669,4095,4095
1.910555917000238,1911,2736,2742
1.9132445060004102,1758,3474,3279
1.9159325529999478,1769,4095,2495
1.918617807999908,1840,4095,4095
1.9213054390002071,1899,1130,2075
1.923993069000062,2010,1469,1235
1.9266831990007631,2309,4095,1342
1.9294237049998628,2069,687,2333
1.932158169000104,1789,3431,1840
1.9348550909999176,1746,2935,2901
1.9375536799998372,2093,4095,4095
1.9402436849995865,1877,21,2253
1.9429333570005838,1925,126,997
1.945623945999614,2241,156,419
1.9483144099995116,2269,3085,3088
1.9510010400008468,1851,2951,2113
1.9536917959994753,1747,2665,3067
1.9563805510006205,1774,4095,2345
1.9590706819999468,1845,2191,2896
1.961760021000373,1904,1600,1707
1.9644493590003549,2096,659,809
1.967141447999893,2321,2854,1135
1.9698527040000045,1996,1696,2547
1.9725434590000077,1769,4095,4095
1.975233756000307,1755,3303,3029
1.977920178000204,2253,4095,4095
1.9806106420001015,1885,430,2228
1.9832978560007177,1932,697,1147
1.9860026110000035,2271,979,797
1.988702242000727,2174,1007,2447
1.99139541400109,1830,3087,1839
1.9940861280010722,1744,2544,2995
1.9967833000009705,1785,4075,2288
1.9994731389997469,1857,1117,2581
2.0022225190004974,1909,1874,1611
2.0049386499995308,2160,441,739
2.007630321999386,2325,4095,4095
2.010319327000616,1934,2415,2667
2.013008791000175,1751,4095,3435
2.015697546999945,1759,4095,2467
2.0183857190004346,2273,4095,4095
2.021074223999676,1899,1043,2337
2.02376210500006,1954,1406,1347
2.0264533600002324,2300,4095,1654
2.0291440740002145,2105,292,2192
2.031834538000112,1802,3281,1725
2.0345207930004108,1745,3089,2983
2.037210340000456,1792,4095,4095
2.039898887000163,1867,141,2322
2.042588185000568,1919,1249,1217
2.045277065000846,2213,401,560
2.047965779000151,2721,4095,4095
2.0506537840010424,1897,2729,2736
2.0533488310011307,1747,3079,3216
2.056065879000016,1763,4095,2462
2.058773676000783,1840,3952,3303
2.061465639999369,1902,1392,1902
2.0641566030008107,2042,1317,1067
2.066848858999947,2316,2857,1105
2.069537281000521,2037,1134,2432
2.073472371999742,1535,3297,1847
2.076175336000233,1050,3011,2806
2.078864799999792,1392,2971,3127
2.0815545139994356,2436,1424,1833
2.0842436439997982,4095,1233,1072
2.0869313160001184,4095,2697,1167
2.0896204880009464,3760,1287,2432
2.0923102440010553,2811,3370,1877
2.094997124000656,2281,3347,2957
2.0976834209996014,2288,4095,4095
2.100372717999562,1899,238,2190
2.1030600989997765,1879,246,1041
2.1057482289998006,2202,80,436
2.1084358179996343,2197,2187,2757
2.1111233650008217,1826,2992,1968
2.113848995999433,1735,2304,2978
2.116540126000473,1774,4095,2304
2.119231464999757,1851,1754,2736
2.1219231369996123,1908,1793,1665
2.124615808999806,2127,421,775
2.127305564999915,2323,4000,1294
2.129993987000489,1968,2015,2559
2.1326841169993713,2151,4095,4095
2.1353730390001147,1756,3722,3024
2.1380606700004137,2380,4095,4095
2.140748674999486,1889,652,2275
2.1434382219995314,1931,1021,1257
2.1461236030008877,2287,2301,1266
2.1488119830009964,2163,347,2227
2.1515005300007033,1818,3180,1751
2.154191661000368,1744,2369,2979
2.156883583000308,1792,4095,2367
2.159573172000819,1857,706,2467
2.1622561359999963,1915,1993,1581
2.164944641001057,2169,605,773
2.167634313000235,2324,4095,4095
2.170322735000809,1926,2290,2624
2.173012199000368,1751,4095,3386
2.1757011210011115,1760,3968,2487
2.17838762700012,2235,4095,4095
2.1810771740001655,1898,1063,2359
2.1837650960005703,1962,1290,1323
2.186455601000489,2304,4095,1567
2.189146732000154,2102,29,2195
2.191836986999988,1803,3312,1744
2.1945236589999695,1746,3110,2990
2.1972137480006495,1793,4095,4095
2.199901295000018,1869,98,2259
2.202589426000486,1921,1147,1166
2.2052806810006587,2211,310,531
2.207970061999731,2636,4095,4095
2.2106583999993745,1890,2790,2721
2.213347031000012,1751,3216,3185
2.216037452999444,1760,3974,2416
2.218727999999828,1839,3776,3269
2.221418506000191,1899,1357,1870
2.22410984400085,2037,1456,1137
2.226797515999351,2318,3248,1180
2.2294879390010465,2045,1023,2404
2.232173985999907,1785,3401,1895
2.234860407999804,1750,3329,2961
2.237550038000336,2128,4095,4095
2.240239835000466,1882,63,2189
2.2429266740000458,1926,65,961
2.245614679999562,2243,106,406
2.248302935000538,2259,3019,3071
2.2509921490000124,1859,2961,2128
2.2536824039998464,1754,2650,2945
2.256369785000061,1777,4095,2310
2.259058998999535,1847,2267,2877
2.261748171000363,1898,1665,1697
2.264438385000176,2091,477,784
2.2671265570006653,2487,2962,1152
2.2698384369996347,1936,1769,2508
2.2725281510010973,1789,4095,4095
2.275242990001061,1561,3344,3025
2.277933036999457,2155,4095,4095
2.2806224590003694,1815,675,2326
2.2833102559998224,1903,720,1203
2.285997094999402,2269,1329,1087
2.288684850000209,2192,784,2373
2.291372689000127,1839,3216,1813
2.294059403000574,1744,2394,2976
2.2967460330000904,1786,4095,2295
2.29943499699948,1857,947,2555
2.3021224189997156,1914,1885,1585
2.304811508000057,2158,485,763
2.3074992220008426,2325,4095,1535
2.310183727000549,1942,2299,2688
2.312872274000256,1764,4095,4095
2.3155607799999416,1759,3759,2791
2.318247118999352,2314,4095,4095
2.3209343739999895,1890,867,2319
2.3236242960010713,1936,1314,1328
2.326311093000186,2293,3711,1535
2.3290078490008455,2124,79,2204
2.331695396000214,1809,3310,1764
2.3343839429999207,1746,2879,3027
2.3370736569995643,1786,4095,2510
2.339762662000794,1869,271,2349
2.342450125999676,1917,1911,1387
2.345137756999975,2195,449,643
2.347825886999999,2617,4095,4095
2.3505123920003825,1881,2627,2709
2.3532009810005547,1754,3562,3284
2.3558899449999444,1765,4066,2487
2.3585785340001166,1835,4095,3437
2.3612647890004155,1897,1200,1872
2.3639542950004397,2005,1422,1148
2.3666404249997868,2313,4095,1409
2.3693301389994303,2065,625,2340
2.372020935999899,1786,3295,1827
2.374709065999923,1744,3263,3021
2.377398655000434,1931,4095,4095
2.380085077000331,1859,0,2210
2.3827726660001645,1922,240,960
2.38546038000095,2230,135,401
2.3881469269999798,2297,4095,3355
2.390833183000723,1872,2893,2261
2.393521604999478,1744,2866,3009
2.39620940200075,1774,4095,2342
2.3988979490004567,1842,2805,3095
2.4015892460010946,1904,1533,1783
2.40427850100059,2075,906,911
2.4069660900004237,2315,2496,1008
2.409653636999792,2011,1456,2490
2.4123427260001336,1776,3568,2121
2.4150289820008766,1746,3131,2942
2.41771973700088,2148,4095,4095
2.4204091589999734,1878,309,2228
2.423095830999955,1931,359,1095
2.4258099620001303,2258,48,464
2.428500926000197,2217,1811,2689
2.4312152639995475,1840,3203,1979
2.4339072279999527,1744,2559,2909
2.43659690000095,1776,4095,2256
2.439286364000509,1853,1535,2679
2.441973869999856,1910,1920,1664
2.4446606670007895,2131,338,778
2.447355588999926,2323,4073,1328
2.4500437610004155,1943,2257,2633
2.4527333910009474,1621,4095,4095
2.4554213139999774,994,3311,2922
2.458109694000086,1731,4095,4095
2.4607992410001316,2107,784,2416
2.4634891629993945,3519,1200,1417
2.4661735850004334,4095,3152,1530
2.4688630910004576,4095,243,2214
2.471552762999636,2987,3219,1707
2.47424118500021,2384,2288,2927
2.4769310240008053,2043,4095,2352
2.4796191130008083,1909,525,2410
2.48230549300024,1877,1757,1505
2.484994665001068,2122,510,709
2.4876843790007115,2320,4095,4095
2.490370884001095,1895,2411,2691
2.493058390000442,1744,4095,3430
2.495748937000826,1754,4067,2441
2.498436734000279,1967,4095,4095
2.5011249060007685,1895,1067,2110
2.503812453000137,1979,1432,1247
2.506499459001134,2303,4095,1492
2.5091905480003334,2092,205,2251
2.511879345000125,1795,3228,1774
2.5145668919994932,1746,3189,2981
2.517256188999454,1856,4095,4095
2.5199465280002187,1871,64,2288
2.52263424100056,1919,928,1113
2.5253239550002036,2223,196,482
2.5280151269998896,2379,4095,4095
2.530702091000421,1887,2836,2519
2.5333915970004455,1750,3207,3216
2.5360816850006813,1771,4095,2481
2.5387686909998592,1840,3126,3177
2.5414574460010044,1901,1442,1847
2.5441454100000556,2052,1399,1075
2.546831874000418,2316,3020,1058
2.5495258379996812,2032,1258,2457
2.5522195930007,1778,3463,1893
2.5549095570004283,1755,3071,2970
2.5576047289996495,2150,4095,4095
2.5602944010006468,1879,169,2224
2.5629849070010096,1920,266,1043
2.5656736199998704,2249,110,432
2.568363626000064,2243,2209,2749
2.571053589999792,1851,3081,1994
2.5737443870002608,1745,2617,3047
2.57643468400056,1776,4095,2320
2.579122314000415,1850,1881,2790
2.581842236999364,1906,1765,1682
2.5845327420011017,2115,319,743
2.587243373000092,2321,3760,1246
2.589934044999609,1973,1924,2593
2.592625966999549,2111,4095,4095
2.5953152639995096,1754,3354,2997
2.5980003109998506,2345,4095,4095
2.600687232999917,1889,687,2256
2.6033763220002584,1931,975,1244
2.606061743999817,2276,2403,1233
2.6087528740008565,2161,510,2295
2.6114421719994425,1821,3330,1789
2.6141270520001854,1746,2223,2894
2.616816474001098,1783,3999,2262
2.6195041880000645,1858,891,2497
2.622191276999729,1910,1817,1535
2.6248798239994358,2163,539,768
2.6275695790009195,2320,4095,4095
2.6302645430005214,1929,2603,2736
2.632953673999509,1757,4095,3456
2.6356438040002104,1759,3583,2416
2.6383306839998113,2194,4095,4095
2.6410431069998594,1889,1126,2244
2.643770446000417,1958,1535,1349
2.6464948680004454,2396,4095,1535
2.6492210400010663,2139,243,2249
2.6519464619996143,1646,3283,1761
2.654675175999728,1581,3232,2973
2.6574040560008143,1859,4095,4095
2.660127144999933,1799,0,2256
2.6628539430003,1892,127,978
2.6655807810002443,2228,120,411
2.668308704000083,2268,3005,2970
2.671037084001,1862,3151,2082
2.673762214999442,1747,2384,2974
2.676491469999746,1776,4095,2307
2.679251559000477,1852,1709,2742
2.681979480999871,1909,1744,1675
2.684707903999879,2134,426,800
2.687438741999358,2320,4095,1438
2.69016578999981,1950,2231,2667
2.6928927120006847,1846,4095,4095
2.6956194670001423,1757,3706,2748
2.6983435149995785,2273,4095,4095
2.701071145000242,1888,939,2348
2.703799025999615,1966,1374,1360
2.708735202000753,2299,4095,1535
2.7114729580007406,1825,3253,2782
2.7142026300007274,1744,2530,2933
2.716932385999826,1781,4095,2340
2.7196651409994956,1863,546,2382
2.722395230000984,1914,1936,1514
2.7251251520010555,2192,543,733
2.7278541159994347,2627,4095,4095
2.7305796630007535,1903,2883,2786
2.733307585000148,1750,3322,3248
2.736036508000325,1767,4095,2512
2.7387608469998668,1837,3621,3239
2.741490185000657,1899,1486,1883
2.744219066000369,2055,1197,1023
2.7469398209996143,2315,2519,1066
2.7496667850009544,2015,1335,2470
2.7523984990002646,1776,3628,4095
2.755125088000568,1750,3003,2943
2.7578910940010246,2198,4095,4095
2.7606241409994254,1881,594,2273
2.7633572710001317,1927,809,1218
2.766079985000033,2278,2035,1143
2.76881290700112,2161,564,2341
2.771542120999584,1818,3318,1835
2.774269376999655,1748,2387,2989
2.776998340999853,1792,4095,2384
2.7797273880005378,1866,295,2358
2.782455726999615,1920,1885,1389
2.7851871910006594,2196,523,681
2.7879159879994404,2734,4095,4095
2.7906416179994267,1902,2827,2751
2.7933687910008302,1759,2941,3163
2.7960965460006264,1776,4095,2430
2.7988223020001897,1841,3242,3182
2.8015506410010858,1899,1456,1854
2.804277520999676,2059,1095,981
2.807003985000847,2305,2496,1055
2.809732281999459,2000,1566,2498
2.8124593289994664,1766,4095,4095
2.815223667999817,1748,3123,2975
2.817954923999423,2249,4095,4095
2.8206862629995157,1881,582,2261
2.823415226999714,1934,1040,1249
2.8261406069996156,2274,2864,1307
2.8288679880006384,2157,224,2283
2.8315952430002653,1680,3333,1786
2.834322164999321,1168,2497,2947
2.8370502130001114,1110,4095,2446
2.839777385001071,1846,362,2391
2.8424793899994256,3153,1681,1424
2.845168271000148,4095,327,669
2.8478617340006167,4095,4095,4095
2.8505502400003024,3495,2672,2496
2.8532383700003265,2715,3720,3264
2.855927126000097,2242,4095,2438
2.8586139649996767,1993,4095,3344
2.8613029700009065,1898,1196,1823
2.8639913919996616,1966,1535,1135
2.866680314000405,2255,2939,1142
2.869369195001127,2011,952,2368
2.8720583249996707,1759,3375,1856
2.8747470390007948,1743,2891,3006
2.8774344610010303,1939,4095,4095
2.8801248420004413,1875,0,2242
2.8828125140007614,1922,69,970
2.8855026439996436,2236,81,416
2.8881930250008736,2276,3390,3136
2.890880737999396,1865,2963,2160
2.8935700349993567,1750,2911,3161
2.896259666000333,1776,4095,2423
2.8989465049999126,1845,2288,2902
2.901635094000085,1905,1475,1680
2.904325348999919,2083,784,847
2.907013938000091,2314,2943,1120
2.9097033600010036,1998,1603,2529
2.91239319899978,1775,4095,4095
2.9150834120009677,1742,3334,2964
2.9177717929997016,2146,4095,4095
2.920460923000064,1878,417,2239
2.9231471790008072,1929,719,1168
2.925869226000941,2260,271,640
2.9285595229994215,2192,1218,2454
2.931247070000609,1836,3184,1858
2.9339339090001886,1744,2476,2881
2.93662058100017,1782,3969,2205
2.939310961999581,1855,1293,2626
2.941999841999859,1904,1818,1617
2.9446904310007085,2143,436,748
2.947378770000796,2319,4095,1521
2.950065524999445,1950,2254,2637
2.95275132200004,1970,4095,4095
2.9554408280000644,1759,3696,2757
2.9581282500003,2346,4095,4095
2.9608177970003453,1889,866,2319
2.963503719000073,1935,1288,1326
2.9661922240011336,2287,3417,1515
2.9688787720006076,2131,48,2151
2.97157215200059,1809,3340,1734
2.974264532000234,1744,2391,2873
2.976953538000089,1839,4095,2370
2.9796495020000293,1859,434,2384
2.9823397569998633,1914,1948,1491
2.9850265130007756,2186,610,713
2.987715601000673,2367,4095,4095
2.9904033570001047,1910,2671,2729
2.9930897790000017,1754,3717,3333
2.9957786180002586,1762,4095,2453
2.998466664999796,1921,4095,4095
3.0011566699995456,1895,1151,2115
3.0038906339996174,1996,1439,1268
3.006607139999687,2303,4095,1472
3.009298770000896,2062,746,2365
3.0119886089996726,1785,3437,1865
3.0146763640004792,1749,2935,2987
3.0173639950007782,1890,4095,4095
3.0200521669994487,1872,0,2265
3.0227397560011013,1920,170,978
3.025428720000491,2246,94,420
3.0281490170000325,2469,4034,3231
3.0308603560006304,1736,3138,2240
3.0335611530008464,1535,3147,3123
3.0362561170004483,1615,4095,2329
3.0389549970004737,1749,2311,2918
3.0418948360002105,1856,1489,1699
3.044634092000706,2078,710,825
3.0473710559999745,2319,4095,1409
3.050099186000807,1955,2178,2645
3.0528303579994827,1795,4095,4095
3.055558863999977,1764,3411,2686
3.0582842029998574,2241,4095,4095
3.0610269170010724,1892,1056,2311
3.0638043390008534,1962,1520,1347
3.066569177999554,2299,4095,1435
3.0692986419999215,2067,538,2351
3.072028897000564,1790,3280,1838
3.0747580280003604,1750,3184,2902
3.0774846999993315,1894,4095,4095
3.0802148719994875,1879,0,2203
3.0829395450000447,1925,77,978
3.085667592000391,2250,92,405
3.0883947639995313,2238,2197,2779
3.0911190189999616,1845,3187,2021
3.093916108000485,1747,2464,2941
3.096650531000705,1776,3776,2240
3.0993810359996132,1857,1111,2558
3.1021097499997268,1907,1826,1578
3.1048389640000096,2157,499,772
3.10756855299951,2320,4095,1535
3.110293682999327,1929,2391,2675
3.113020606000646,1758,4095,3409
3.1157470689995534,1761,3502,2438
3.1184724499998993,1939,4095,4095
3.1211985390000336,1892,1085,2115
3.1239256280005065,2001,1440,1253
3.126648216999456,2304,3421,1331
3.129375139000331,2055,951,2385
3.1321012690004864,1785,3280,1831
3.1348289830002614,1749,2975,2864
3.137559529999635,2108,4095,4095
3.1402879110009962,1878,147,2218
3.1430209999998624,1923,214,1023
3.145754297000167,2253,89,432
3.148483094000767,2218,1840,2677
3.151247058000081,1840,3235,1975
3.1539765640009136,1746,2433,2912
3.1567066940006043,1783,3943,2223
3.1594345749999775,1856,915,2513
3.1621609140001965,1910,1823,1571
3.1648906270002044,2164,623,771
3.1676182160008466,2315,4095,4095
3.170344472000579,1923,2496,2672
3.1730698520004808,1758,4095,3565
3.175795274999473,1767,3839,2513
3.1785201969996706,1831,4095,3446
3.1812475770002493,1898,1102,1861
3.183974624000257,2015,1607,1168
3.186700172000201,2306,3568,1174
3.1894289270003355,2041,933,2405
3.192174141000578,1784,3423,1891
3.1949013550001837,1754,2911,2945
3.19762910999998,2095,4095,4095
3.2003606159996707,1882,164,2182
3.203088497000863,1921,511,1118
3.2058634189997974,2259,105,544
3.2086194660005276,2192,1250,2541
3.211349055000028,1722,3173,1883
3.214074977000564,1191,2515,2915
3.2168033580001065,1035,4023,2240
3.219530530001066,1611,785,2511
3.222256451999783,2731,1840,1622
3.2249834579997696,4095,539,814
3.227711671999714,4095,4095,4095
3.2304399690001446,3259,2585,2685
3.2331698489997507,2523,3411,3300
3.2358985629998642,2110,3919,2446
3.2386221939996176,1923,4095,3326
3.241349824000281,1871,1210,1846
3.2440533299995877,1978,1499,1102
3.2467406680007116,2263,2927,1138
3.249428049000926,1999,1168,2416
3.252116304000083,1772,3501,1913
3.2547986429999582,1748,3094,2938
3.2574896900005115,2090,4095,4095
3.260180778999711,1875,0,2182
3.2628797010002017,1928,178,990
3.2655710819999513,2249,72,413
3.2682607540009485,2254,2209,2733
3.270947843000613,1855,2949,1967
3.2736389729998336,1749,2498,2875
3.2763267280006403,1783,3853,2221
3.2790125669998815,1846,1955,2811
3.2816997390000324,1904,1527,1629
3.2843886610007758,2103,617,800
3.2870756669999537,2306,3331,1201
3.2897666310000204,1985,1840,2559
3.2924632190006378,2032,4095,4095
3.295185766999566,1756,3063,2930
3.2978786889998446,2249,4095,4095
3.3005702780010324,1883,510,2253
3.303261700000803,1931,1015,1261
3.3059503300009965,2274,1787,1161
3.3086395020000055,2173,611,2304
3.3113285489998816,1827,3138,1777
3.314016222000646,1744,2289,2879
3.316703268999845,1786,3838,2197
3.319419982999534,1857,965,2517
3.32214723800098,1901,1660,1518
3.324842202000582,2169,659,768
3.3275340410000354,2320,4095,4095
3.330225462999806,1934,2320,2669
3.3329139270008454,1762,4095,3445
3.335601390001102,1766,3645,2463
3.3382881870002166,1953,4095,4095
3.340977859999839,1894,1091,2106
3.3436658650007303,1969,1522,1265
3.346353454000564,2287,4095,1482
3.349042834001011,2091,144,2258
3.3517309649996605,1799,3293,1766
3.3544181369998114,1744,2951,2991
3.357106183999349,1790,4095,4095
3.3597968140002195,1858,80,2288
3.362487278000117,1909,1056,1152
3.3651783670011355,2205,365,528
3.367865664000419,2459,4095,4095
3.3705825859997276,1889,2740,2549
3.3732711749999,1747,3290,3234
3.3759578469998814,1767,4078,2454
3.3786461029994825,1839,3325,3200
3.381334941001114,1901,1331,1826
3.384024988999954,2043,1472,1104
3.3867122440005915,2314,2939,1072
3.3894061659993895,2034,1266,2486
3.3920967129997734,1785,3397,1917
3.394783969000855,1753,3017,2960
3.397474098999737,2143,4095,4095
3.4001610630002688,1894,64,2206
3.40284690199951,1924,97,961
3.4055369070010784,2238,110,412
3.4082257879999815,2127,2256,2717
3.410914293001042,1350,3127,1956
3.4136031739999453,1265,2740,2967
3.416294179000033,1446,4018,2256
3.4189815589998034,1673,2058,2820
3.421671857000547,1835,1651,1667
3.4243620699999155,2095,592,803
3.4270522839997284,2326,3154,1158
3.4297436230008316,2000,1927,2598
3.432434669999566,2043,4095,4095
3.4351227170009224,1767,3069,2977
3.437852222999936,2262,4095,4095
3.4405615199993917,1887,541,2255
3.4432813590010483,1925,1009,1251
3.4460007390007377,2273,2283,1131
3.448731995000344,2157,432,2281
3.451445667000371,1822,3220,1775
3.4541358389997185,1744,2474,2871
3.4568247200004407,1789,4095,2320
3.459516225000698,1861,624,2448
3.462204188999749,1927,1817,1531
3.464897361000112,2177,624,769
3.4675881580005807,2334,4095,4095
3.4702765380006895,1918,2421,2672
3.4729637109994655,1760,3728,3318
3.475651923999976,1763,3927,2463
3.478339221001079,1832,4095,3505
3.481026727000426,1891,1070,1879
3.4837179410005774,1982,1421,1130
3.486407362999671,2297,4095,1349
3.489097910000055,2086,411,2295
3.4917883739999525,1797,3175,1764
3.4944767960005265,1751,3122,2951
3.497167301000445,1796,4095,4095
3.499857848000829,1868,57,2235
3.502545146000557,1920,618,1017
3.505233400999714,2215,215,448
3.5079223230004573,2302,4095,4095
3.510610870000164,1882,2766,2477
3.5133008339998923,1755,2983,3154
3.515991047999705,1764,4061,2432
3.518681595000089,1841,3139,3159
3.5213748090009176,1901,1392,1802
3.5240644389996305,2054,1402,1021
3.526753235999422,2309,2589,1051
3.529443741999785,2026,1328,2426
3.532132914000613,1782,3252,1879
3.5348200440002984,1755,2896,2896
3.53750913300064,2061,4095,4095
3.5401962640007696,1878,98,2221
3.542883060999884,1923,191,1017
3.5455715250009234,2245,49,418
3.548260780000419,2231,1913,2675
3.550949034999576,1853,3105,1945
3.5536372080005094,1749,2406,2847
3.5563279210000474,1777,4095,2209
3.5590165100002196,1851,1940,2815
3.561705099000392,1906,1521,1652
3.5643934790005005,2110,466,763
3.5670821509993402,2318,3189,1163
3.569772198999999,1980,1877,2559
3.572468079000828,2133,4095,4095
3.5751859600004536,1758,3431,2944
3.5778781730004994,2314,4095,4095
3.5805682619993604,1882,591,2237
3.5832583510000404,1930,1096,1255
3.585946856001101,2273,2123,1145
3.588634486999581,2160,594,2335
3.591325950999817,1703,3217,1788
3.594012413999735,1159,2605,2829
3.596702462000394,961,4067,2223
3.5993927590006933,1470,835,2517
3.602079264001077,2507,1744,1594
3.604768895000234,4095,654,855
3.6074589420004486,4095,4095,4095
3.6101459470010013,3205,2304,2628
3.6128347030007717,2480,4095,3435
3.6155269579994638,2071,3663,2439
3.6182165469999745,2143,4095,4095
3.620904385999893,1859,976,2106
3.6235950160007633,1902,1503,1266
3.6262843549993704,2241,4095,1424
3.628972402000727,2067,47,2223
3.6316610739995667,1791,3393,1773
3.6343520379996335,1745,3174,2935
3.6370416680001654,1793,4095,4095
3.6397311319997243,1869,198,2283
3.6424181380007212,1920,1297,1213
3.645106976000534,2207,416,560
3.6477985239998816,2585,4095,4095
3.650485612000921,1897,2638,2685
3.6531752009996126,1759,2927,3122
3.655865373000779,1774,4095,2362
3.6585532539993437,1837,3568,3227
3.6612411759997485,1895,1232,1817
3.6639295559998573,2031,1375,1104
3.6666185619997123,2305,3322,1105
3.669307234000371,2039,1125,2430
3.6719954479995067,1783,3303,1873
3.674683619999996,1753,2833,2891
3.677372957999978,2031,4095,4095
3.6800597559995367,1875,25,2196
3.6827471779997722,1922,112,957
3.685434475000875,2238,138,397
3.6881211050003913,2261,2716,2890
3.690807319000669,1863,3041,2023
3.693498615999488,1754,2559,2971
3.696188455000083,1776,4095,2283
3.698874834999515,1847,2288,2889
3.7015642160004063,1904,1485,1687
3.704252429999542,2091,778,835
3.706939435000095,2313,2790,1105
3.709628190999865,1995,1605,2506
3.7123200290006935,1776,4095,4095
3.7150107010002102,1753,2960,3005
3.7177003319993673,2229,4095,4095
3.7203890460004914,1879,442,2245
3.7230770099995425,1929,697,1179
3.7257640980005817,2258,240,729
3.7284539789998234,2192,1328,2530
3.731140984000376,1838,3162,1888
3.7338725730005535,1747,2494,2943
3.7365638289993512,1780,4016,2229
3.7392532089997985,1857,1155,2559
3.741941881000457,1907,1849,1610
3.7446301780000795,2145,590,807
3.7473205589994905,2315,4095,1520
3.7500086470008682,1945,2194,2637
3.7526979859994753,1767,4095,4095
3.755387574999986,1763,3552,2731
3.758074330000454,2235,4095,4095
3.7607630860002246,1891,918,2299
3.763451716000418,1936,1483,1363
3.766134179999426,2285,3724,1556
3.7690562280004087,2119,143,2176
3.77174927499982,1799,3227,1727
3.774437489000775,1750,3031,2976
3.7771262860005663,1802,4095,4095
3.7798119580002094,1871,45,2263
3.782498505001058,1917,790,1085
3.7851863440009765,2224,294,489
3.787874515999647,2676,4095,4095
3.79056047999984,1754,2721,2512
3.7932489850009006,1535,3184,3136
3.79593711599955,1603,4095,2395
3.798622788001012,1731,3328,3191
3.8013209599994298,1845,1347,1840
3.804010174000723,2031,1422,1067
3.806699512000705,2305,2647,1040
3.8093896430000314,2032,1278,2417
3.812077815000521,1790,3346,1882
3.814763653999762,1762,3163,2935
3.8174516590006533,2110,4095,4095
3.8201392060000217,1878,49,2160
3.8228245450009126,1921,145,971
3.825512716999583,2241,38,400
3.82819972300058,2239,2256,2763
3.830884936000075,1856,2975,1961
3.83357210900067,1750,2501,2990
3.8362611970005673,1779,4095,2269
3.8389490360004856,1849,2000,2815
3.841636875000404,1905,1650,1681
3.844347755000854,2107,496,774
3.847071636000692,2313,3024,1173
3.849799057999917,1982,2011,2559
3.8525275219999457,2158,4095,4095
3.8552573190008843,1762,3370,2999
3.8579817410009127,2367,4095,4095
3.8607102890000533,1889,703,2293
3.863437793999765,1931,1278,1328
3.866161715999624,2286,3805,1487
3.868889305000266,2122,80,2224
3.871614060999491,1809,3184,1745
3.874337691000619,1749,2765,2895
3.8770630300004996,1797,4095,2446
3.879787619000126,1870,145,2282
3.88251287499952,1920,784,1081
3.885237380000035,2213,335,507
3.8879642610008887,2297,4095,3455
3.89068880800005,1886,2815,2288
3.8934168129999307,1757,2922,3005
3.8961446110006364,1779,4095,2305
3.8988699080000515,1853,2283,2886
3.9015971219996572,1906,1455,1665
3.9043253769996227,2096,704,827
3.9070518410007935,2295,3082,1152
3.909779472000082,1971,1856,2559
3.912507769000513,2123,4095,4095
3.915268398999615,1757,3291,2997
3.917994780000299,2361,4095,4095
3.9207222439999896,1882,723,2315
3.923450333000801,1934,1351,1335
3.9261765880000894,2288,3686,1535
3.92890517700107,2119,21,2182
3.931633349000549,1808,3266,1745
3.9343613130004087,1751,2753,2945
3.9370914850005647,1798,4095,4095
3.9398189069997898,1867,99,2268
3.9425432050011295,1919,734,1075
3.9452707929995086,2224,208,475
3.947999299000003,2294,4095,3318
3.9518216400010715,1875,2917,2223
3.95455860400034,1757,2732,3114
3.9572884009994596,1840,4095,4095
3.9600153230003343,1872,0,2224
3.9627383290007856,1921,91,966
3.9654658760009625,2233,132,401
3.968196089999765,2251,2291,2793
3.970925679001084,1781,2949,1967
3.973653559000013,1231,2481,2925
3.9763790230008453,935,4095,2249
3.979103154000768,1333,1678,2755
3.9818721179999557,2315,1661,1677
3.984597747999942,4071,529,883
3.987335544999951,4095,4095,1481
3.9900612180008466,3180,2235,2592
3.992787182000029,2448,4095,4095
3.9955144790001214,2043,3359,2722
3.998242734000087,2247,4095,4095
4.000981698000032,1855,914,2171
4.003715287000887,1919,1502,1299
4.006510376000733,2251,4079,1370
4.009273257001041,2039,576,2345
4.0120066790004785,1780,3242,1798
4.014733893000084,1750,2949,2845
4.0174631900008535,1935,4095,4095
4.020192236999719,1881,0,2139
4.022919242999706,1927,290,1013
4.025645957000961,2251,79,419
4.0283751700008,2209,1827,2704
4.031104051000511,1842,3185,1984
4.033875348000947,1749,2347,2863
4.036607269999877,1789,3782,2176
4.03933627600054,1856,496,2421
4.042062865000844,1909,2045,1580
4.044791829001042,2160,435,749
4.047504792999462,2304,4095,4095
4.050198590000946,1922,2443,2691
4.0528890950008645,1763,4095,3334
4.055576766999366,1767,3552,2434
4.05826498100032,2027,4095,4095
4.060953528000027,1891,1226,2163
4.0636459500001365,1981,1424,1265
4.066333914001007,2289,4095,1468
4.0690340860001015,2081,463,2286
4.0717648419995385,1799,3261,1790
4.074487972000497,1755,2992,2973
4.07718031100012,1807,4095,4095
4.0798687749993405,1871,0,2249
4.0825554889997875,1920,291,981
4.08524378599941,2219,282,438
4.087933499000428,2287,4095,3358
4.090620797000156,1875,2859,2235
4.093309719000899,1755,3052,3059
4.096006599000248,1771,4095,2378
4.098699521000526,1843,2850,3133
4.10139165200053,1898,1410,1788
4.10408094900049,2065,1118,959
4.106769746000282,2302,2442,1011
4.109458126000391,2011,1516,2450
4.112146215000394,1783,3333,2015
4.11483555400082,1759,2990,2925
4.1175262260003365,2112,4095,4095
4.12021514800108,1878,210,2187
4.1229041120004695,1926,339,1041
4.12559178400079,2251,41,432
4.128284247999545,2220,1794,2652
4.130973837000056,1847,3141,1935
4.133662301001095,1751,2624,3011
4.136349181000696,1781,3733,2245
4.13903618599943,1850,1603,2719
4.1417241920007655,1909,1581,1625
4.14441182200062,2118,506,797
4.147105578000264,2313,3920,1265
4.149844875000781,1970,1966,2559
4.152538255999389,1983,4095,4095
4.155254094001066,1762,3108,2835
4.157946683000773,2362,4095,4095
4.160637605000375,1885,658,2245
4.1633270689999335,1931,1405,1328
4.166015283000888,2342,3263,1395
4.168703204999474,2181,183,2199
4.171392043999731,1622,3109,1716
4.174079632999565,1527,2438,2912
4.1767669710006885,1629,4095,2365
4.179453185000966,1771,448,2394
4.182139690999975,1875,1811,1501
4.184825238000485,2163,642,740
4.1875152430002345,2308,4095,4095
4.190205290000449,1925,2394,2662
4.192896836999353,1766,3422,3151
4.195588676000625,1774,3551,2301
4.198281348000819,1968,4095,4095
4.200973937000526,1890,1071,2117
4.203663526001037,1984,1442,1258
4.206351406000977,2291,4095,1415
4.209043202999965,2080,443,2288
4.211733792000814,1801,3168,1764
4.2144217980003305,1755,3051,3014
4.217110720001074,1803,4095,4095
4.219799934000548,1872,15,2241
4.22248956400108,1919,554,1035
4.2251800280009775,2213,304,464
4.227869157999521,2295,4095,4095
4.230557246999524,1883,2827,2493
4.233245669000098,1758,2714,3084
4.235934174999784,1776,4095,2334
4.2386210130007385,1843,3038,3162
4.241309936000107,1901,1382,1831
4.243996191000406,2047,1330,1022
4.246692029999394,2302,2768,1023
4.249387410000054,2021,1344,2429
4.252079832000163,1786,3395,1886
4.254770462999659,1756,2867,2878
4.257463301999451,2096,4095,4095
4.260154056999454,1879,146,2208
4.262841895999372,1921,292,1051
4.265531901000941,2246,33,439
4.268221907001134,2224,2151,2734
4.270909954000672,1853,2958,1950
4.273599875999935,1756,2419,2959
4.276286882000932,1783,4095,2226
4.278971054000067,1845,1734,2736
4.281662559000324,1905,1584,1634
4.284354397999778,2114,508,768
4.287043653001092,2307,3401,1214
4.2897587419993215,1974,1891,2587
4.29244687299979,2057,4095,4095
4.295134670001062,1762,3140,2965
4.297861925000689,2327,4095,4095
4.300557139000375,1883,552,2246
4.303249685999617,1931,1286,1318
4.305940233000001,2272,2343,1277
4.308629529999962,2146,425,2320
4.311318702999415,1821,3097,1767
4.314006000000518,1750,2523,2947
4.316693963000944,1792,4095,2342
4.319385676999445,1861,529,2399
4.322076099000697,1901,1886,1506
4.32476398000108,2169,597,752
4.327453652000258,2305,4095,4095
4.330141366001044,1923,2481,2688
4.332830204999482,1765,4095,3392
4.335517126999548,1765,3583,2418
4.338203424000312,2135,4095,4095
4.34089388800021,1895,1040,2166
4.343613434999497,1969,1479,1285
4.346340481999505,2288,3955,1478
4.34903752900027,2078,446,2286
4.351729534999322,1615,3157,1759
4.354419164999854,1088,3142,2951
4.357113504000154,967,4095,4095
4.359803508999903,1520,14,2304
4.362489806000667,2523,395,1061
4.365178477999507,4095,237,506
4.367866942000546,4095,4095,3431
4.37055319799947,2896,2853,2285
4.373240660999727,2287,2559,2992
4.3759292920003645,1966,4095,2288
4.378616672000135,1862,3039,3153
4.38130409400037,1854,1392,1818
4.383994100000564,1995,1253,991
4.3866841470007785,2261,2544,1012
4.389372027999343,1997,1456,2479
4.39206220000051,1775,3285,1919
4.394749413000682,1753,3063,2953
4.397442461000537,2151,4095,4095
4.400135383000816,1883,176,2222
4.402824804999909,1922,255,1023
4.405514435000441,2252,69,419
4.408202732000063,2226,2160,2744
4.410890529999961,1856,3067,1977
4.413578617999519,1754,2559,2950
4.416268623999713,1786,4095,2241
4.418957629000943,1855,1770,2757
4.421648051000375,1907,1577,1621
4.424335140000039,2114,470,773
4.427024271000846,2307,3312,1215
4.429713318000722,1973,1904,2587
4.432400448000408,2128,4095,4095
4.435087537000072,1763,3056,2960
4.437777667000773,2311,4095,4095
4.440466797999761,1886,459,2240
4.443182177999915,1931,1168,1279
4.445878975000596,2272,1954,1136
4.448571438999352,2155,541,2308
4.451267444999758,1827,3178,1781
4.453956784000184,1758,2453,2864
4.456646622000335,1792,4006,2244
4.459335169000042,1867,593,2411
4.462021008001102,1900,1794,1520
4.464708179999434,2165,575,747
4.467397644000812,2302,4095,4095
4.470084399999905,1935,2345,2672
4.472773072000564,1775,4095,3407
4.475459827001032,1775,3694,2448
4.47814683300021,2183,4095,4095
4.480834420999599,1888,976,2139
4.4835214680006175,1954,1242,1230
4.486208973999965,2281,4095,1515
4.488896520999333,2087,148,2234
4.491586317999463,1797,3281,1774
4.494272615000227,1747,3040,3056
4.496965161999469,1797,4095,4095
4.499658585000361,1866,97,2251
4.502347423000174,1915,1187,1167
4.505034761999923,2205,399,535
4.507722600999841,2603,4095,4095
4.51041098099995,1899,2749,2688
4.513099695001074,1757,3217,3125
4.515788409000379,1773,4095,2373
4.518473914000424,1840,3882,3274
4.521161753000342,1899,1313,1879
4.523849508999774,2032,1328,1102
4.526536721999946,2302,3110,1182
4.529225645001134,2036,1125,2384
4.531913483000608,1792,3375,1851
4.534601530000145,1761,2938,2903
4.53728891100036,1969,4095,4095
4.539977500000532,1872,34,2182
4.54266396300045,1922,86,949
4.545352552000622,2255,92,401
4.548048808001113,2386,2772,2960
4.550740104999932,1680,3021,2038
4.553431276999618,1513,2727,3024
4.5561216570004035,1598,4095,2329
4.55881178799973,1738,2230,2911
4.561500460000389,1854,1521,1697
4.564189049000561,2079,618,821
4.566877138000564,2307,2931,1147
4.569566850999763,1997,1787,2559
4.572256564999407,1785,4095,4095
4.574945279000531,1768,2989,2944
4.577635200999794,2243,4095,4095
4.580322248000812,1883,270,2238
4.583009837000645,1925,787,1190
4.5856972170004155,2265,557,833
4.588384098000461,2190,1082,2430
4.5910726450001675,1840,3143,1824
4.593763609000234,1751,2433,2861
4.596456531000513,1790,3974,2192
4.599147910999818,1861,993,2545
4.601877500001137,1909,1795,1587
4.604567755999597,2185,490,768
4.607260094000594,2310,4095,1535
4.609949267000047,1941,2192,2637
4.61263868900096,1769,4095,4095
4.6153281110000535,1763,3373,2696
4.6180159079995065,2288,4095,4095
4.6207047879997845,1894,847,2302
4.623393669000507,1942,1478,1365
4.62608117399941,2286,3665,1515
4.628769345999899,2114,38,2189
4.631456519000494,1813,3227,1734
4.6341476070010685,1757,2704,2992
4.636836237999887,1797,4095,2481
4.63952699299989,1870,290,2325
4.642216415000803,1914,1781,1358
4.644904628999939,2191,463,640
4.647600968000916,2423,4095,4095
4.650293057000454,1905,2646,2715
4.652983312000288,1753,3556,3203
4.655672234001031,1774,3888,2381
4.658360073000949,1839,4095,3407
4.661050745000466,1894,1165,1849
4.663739084000554,2015,1424,1106
4.666426756000874,2299,3275,1231
4.6691143450007075,2053,915,2357
4.671804309000436,1793,3251,1838
4.674493063999762,1760,2926,2943
4.67718090299968,1954,4095,4095
4.679867200000444,1872,6,2198
4.682555039000363,1922,135,944
4.685241544000746,2224,190,402
4.68792942500113,2273,3798,3195
4.690616179999779,1871,2896,2160
4.693305394001072,1755,2907,3040
4.695993315999658,1776,4095,2345
4.698685987999852,1842,2650,3068
4.701377827001124,1904,1525,1770
4.7040687070002605,2064,817,879
4.706757755000581,2306,2540,1055
4.709446052000203,2006,1524,2519
4.712134139999762,1783,4095,4095
4.714821771000061,1764,2587,2821
4.7175107349994505,2063,4095,4095
4.720197365000786,1882,188,2212
4.722883996000746,1926,627,1137
4.72557212600077,2255,65,511
4.7282600899998215,2206,1510,2559
4.73094792899974,1739,2950,1852
4.733635976001096,1151,2474,2816
4.736325440000655,825,4091,2195
4.739013487000193,1161,1460,2688
4.741702409000936,2064,1637,1657
4.744391123000241,3441,467,843
4.7470829200010485,4095,4095,1413
4.749779800000397,3062,2014,2559
4.752473305999956,2848,4095,4095
4.7551911440004915,2017,3680,2942
4.757882400001108,2418,4095,4095
4.760573239000223,1857,749,2266
4.763263578000988,1877,1317,1323
4.765954041000441,2233,3239,1391
4.768644047000635,2111,93,2192
4.771334344000934,1807,3237,1744
4.774023682999541,1745,2624,2938
4.776712812999904,1793,4095,2380
4.779399860000922,1867,466,2365
4.782088657000713,1915,1926,1517
4.784775662999891,2183,541,738
4.787463042999661,2306,4095,4095
4.790147298999727,1920,2559,2669
4.792835387001105,1762,4048,3307
4.795527935000791,1769,3967,2398
4.798221273000308,1947,4095,4095
4.80091461200027,1890,1183,2137
4.803605076000167,1988,1442,1273
4.806292581000889,2295,4095,1419
4.808980044999771,2070,536,2302
4.8116691340001125,1799,3218,1803
4.814356973000031,1751,3216,2955
4.817046019999907,1830,4095,4095
4.81973410899991,1870,7,2250
4.822422446999553,1920,570,1017
4.825110327999937,2217,252,458
4.827799874999982,2369,4095,4095
4.830488714000239,1886,2815,2512
4.833177511000031,1758,3027,3152
4.835866891000478,1776,3961,2352
4.838561521999509,1840,2934,3150
4.841251527001077,1902,1379,1782
4.8439396579997265,2059,1264,986
4.846633787999963,2304,2661,1068
4.849327584999628,2017,1360,2492
4.852020508000351,1782,3356,1900
4.854709929999444,1761,3138,2866
4.857399352000357,2083,4095,4095
4.860086648999641,1878,266,2210
4.862775904000955,1926,249,1023
4.86546432599971,2249,69,416
4.8681533740000305,2224,2101,2758
4.870840629000668,1854,3001,1972
4.873528759000692,1751,2518,2915
4.876216681999722,1781,3983,2218
4.8789047700011,1855,1517,2684
4.881592900999749,1904,1693,1613
4.884280115000365,2113,464,761
4.88696691199948,2305,3682,1289
4.889655126000434,1974,1957,2622
4.89234358900103,2135,4095,4095
4.8950323450008,1763,3370,3003
4.8977258920003806,2319,4095,4095
4.900417938999453,1886,735,2271
4.903106611000112,1927,1068,1292
4.905831366999337,2270,2279,1171
4.908521246999953,2154,297,2302
4.9112361280003825,1824,3167,1785
4.913925382999878,1749,2506,2790
4.916614764000769,1793,4095,2256
4.919304143999398,1862,651,2448
4.921990483000627,1911,1853,1526
4.924678904999382,2171,612,764
4.92736807700021,2525,4095,4095
4.930057831999875,1816,2422,2641
4.932745213000089,1535,4095,3370
4.935435552000854,1582,3915,2426
4.938123682000878,2025,4095,4095
4.940812729000754,1830,947,2117
4.943499985000017,1950,1405,1261
4.9461869900005695,2292,4095,1405
4.948880079000446,2097,381,2284
4.951571793000767,1805,3298,1777
4.954260798000178,1757,2880,2960
4.956949929000984,1799,4095,4095
4.959639767001136,1872,83,2285
4.96232785599932,1920,777,1104
4.965016944999661,2212,279,497
4.967709075001039,2559,4095,4095
4.970399122999879,1886,2752,2547
4.973089086000982,1758,3357,3271
4.975776049999695,1773,3904,2446
4.9784618060002686,1840,3287,3179
4.98114951900061,1901,1306,1808
4.983844692000275,2039,1426,1085
4.986538322000342,2304,2806,1108
4.989228161000938,2033,1117,2416
4.991916791001131,1782,3242,1859
4.9946027969999705,1757,2955,2928
4.997297177000291,2086,4095,4095
4.999988015999406,1871,34,2208
5.0026795209996635,1921,131,999
5.005372151999836,2245,61,413
5.008111866000036,2224,2395,2855
5.0108282460005285,1854,2989,2015
5.013519834999897,1750,2370,2902
5.016209466000873,1779,4095,2290
5.018897637999544,1850,1533,2672
5.021586767999906,1907,1595,1600
5.024277274000269,2125,432,759
5.026965446000759,2311,3750,1269
5.029657826000403,1974,2021,2605
5.032348456999898,2103,4095,4095
5.035034462000112,1765,3363,3005
5.03772334200039,2355,4095,4095
5.040414098000838,1889,682,2269
5.04310027000065,1934,1010,1250
5.045825359000446,2273,2486,1182
5.0485248639997735,2149,193,2209
5.051246037000965,1825,3367,1767
5.053938541999742,1750,2485,3001
5.056632214000274,1791,4095,2371
5.059321594999346,1855,602,2398
5.062010474999624,1905,1833,1504
5.0646991890007484,2175,511,725
5.067387443999905,2311,4095,4095
5.070074074999866,1917,2509,2688
5.072762830001011,1753,4095,3377
5.07545308599947,1762,3669,2441
5.078174215999752,2161,4095,4095
5.080899013000817,1891,1093,2161
5.0835901020000165,1998,1376,1276
5.086281773999872,2306,3583,1395
5.08897336300106,2071,720,2331
5.091662327000449,1793,3266,1807
5.0943509160006215,1749,3083,2937
5.097051171000203,1834,4095,4095
5.09974375999991,1869,11,2257
5.102432306999617,1920,261,983
5.105122770999515,2226,271,433
5.107813025999349,2294,4095,3311
5.110502448000261,1818,2838,2231
5.113190996000412,1279,3009,3049
5.115880250999908,940,4061,2322
5.118569423000736,1270,2827,3119
5.1212590119994275,2206,1383,1786
5.123948684000425,3779,1229,1037
5.1266375230006815,4095,2622,1162
5.129326862001108,3423,1408,2451
5.132015909000984,2587,3438,2096
5.134702789000585,2128,3105,2927
5.137393045000863,2246,4095,4095
5.140082967000126,1861,245,2192
5.142769514000975,1872,490,1110
5.145466811000006,2208,47,462
5.1481574829995225,2190,1825,2645
5.150844322000921,1826,3220,1968
5.153535868999825,1744,2336,2869
5.156224833001033,1780,4095,2252
5.158912380000402,1850,1754,2753
5.161602177000532,1907,1806,1680
5.164290890999837,2128,352,778
5.166978813000242,2315,3941,1307
5.1696674850009,1968,2160,2603
5.172357241001009,2092,4095,4095
5.1750463290009066,1757,3425,3008
5.177736667999852,2342,4095,4095
5.180426257000363,1889,614,2247
5.183114303999901,1932,1341,1325
5.185852976001115,2283,2725,1282
5.188543981999828,2147,213,2234
5.191233278999789,1814,3271,1768
5.193921825999496,1749,2667,2893
5.196611790001043,1799,4095,2337
5.199302420000095,1859,567,2431
5.201991009000267,1910,2047,1575
5.204681139000968,2178,477,742
5.207369519999702,2318,4095,4095
5.21006052499979,1932,2459,2672
5.212750988999687,1751,3613,3306
5.215445077999902,1763,4018,2417
5.218135375000202,1991,4095,4095
5.220834214000206,1892,1123,2129
5.223525093999342,1991,1379,1265
5.226213850000931,2303,4095,1456
5.22890381400066,2083,353,2267
5.231593943999542,1797,3487,1808
5.234284490999926,1746,3010,3011
5.236973537999802,1791,4095,4095
5.239869211000041,1871,10,2245
5.242575050000596,1921,49,970
5.245274971999606,2243,102,404
5.247967601999335,2257,2800,2992
5.250656066000374,1860,3011,2067
5.253347030000441,1745,2487,3045
5.256036077000317,1779,4073,2288
5.258725166000659,1847,2235,2884
5.261415504000979,1905,1535,1689
5.264105092999671,2103,631,803
5.266791473999547,2317,2896,1121
5.2694818540003325,1989,1680,2559
5.272171151000293,1997,4095,4095
5.274861615000191,1751,3067,2971
5.2775539539998135,2223,4095,4095
5.280246001000705,1879,558,2261
5.282937423000476,1926,784,1199
5.2856275949998235,2276,1051,975
5.2883176840005035,2186,1146,2464
5.291005065000718,1828,3094,1840
5.293694612000763,1744,2277,2921
5.296384700000999,1785,4042,2224
5.2990723729999445,1857,912,2545
5.301761419999821,1913,1918,1614
5.304453632999866,2160,398,752
5.307145889000822,2463,4095,1499
5.309863727999982,1718,2157,2609
5.312557066999943,1426,4095,3449
5.31525203000092,1489,3582,2439
5.317942244000733,2095,4095,4095
5.32063504100006,1813,1075,2352
5.323326421999809,1923,1435,1386
5.326016926999728,2299,3982,1602
5.3287051410006825,2127,51,2171
5.331393562999438,1811,3227,1721
5.334076985000138,1753,3107,3023
5.336766574000649,1794,4095,2505
5.339457746000335,1867,189,2304
5.342149460000655,1919,1712,1308
5.3448426320010185,2209,361,582
5.347535012000662,2624,4095,4095
5.350222893001046,1894,2665,2480
5.352913857001113,1750,3150,3179
5.355602612000439,1763,4001,2363
5.358292075999998,1840,3926,3315
5.360982165000678,1891,1315,1872
5.363670878999983,2031,1366,1108
5.366353175999393,2318,3972,1247
5.3690441390008345,2046,816,2355
5.37173985300069,1785,3295,1829
5.374431317000926,1744,3136,2940
5.377124197999365,1842,4095,4095
5.379814244999579,1872,73,2178
5.382504208000682,1922,61,938
5.38519254700077,2243,80,389
5.387880886000858,2287,3406,3087
5.390569016000882,1863,2917,2086
5.393255564000356,1744,2878,2910
5.395943777000866,1773,4095,2278
5.398631324000235,1840,2461,2955
5.401323662999857,1904,1570,1712
5.4040125440005795,2096,677,807
5.406702174001111,2323,2529,1021
5.411275267000747,1997,1587,2498
5.413971396999841,1744,2449,2846
5.416665569000543,1791,4095,2307
5.419356865999362,1861,266,2311
5.422045039000295,1913,1831,1380
5.4247356270007,2195,409,632
5.427425633000894,2322,4095,4095
5.430114054999649,1905,2415,2640
5.4328025600007095,1749,3049,3123
5.435492816000988,1763,4083,2343
5.438181613000779,1834,4095,3429
5.440874285000973,1894,1103,1850
5.443565666000723,2009,1143,1068
5.446253254000112,2311,3710,1309
5.4489946350004175,2070,492,2273
5.4516937650005275,1783,3135,1745
5.454425728999922,1726,3006,2946
5.457146775999718,1813,4095,4095
5.459837824000715,1873,62,2190
5.462523954000062,1926,51,944
5.465218209999875,2247,116,389
5.467912714999329,2269,2857,2919
5.470605178999904,1856,2884,1991
5.473297767999611,1745,2318,2805
5.475991690000228,1767,4095,2240
5.47867836200021,1840,2096,2833
5.481367742000657,1905,1774,1705
5.484056789000533,2103,434,777
5.486745878000875,2323,2759,1012
5.489432925000074,1984,1581,2457
5.49212013900069,1412,4095,4095
5.494807061000756,881,3158,2862
5.497498483000527,1319,4095,4095
5.500185864000741,1792,495,2256
5.502872410999771,3083,492,1170
5.50556137500098,4095,639,846
5.508252879999418,4095,1326,2480
5.5109415110000555,2951,2788,1754
5.5136300989997835,2347,2237,2694
5.516324104999512,2014,3865,2109
5.519012026999917,1893,1074,2515
5.521700907000195,1868,1877,1566
5.52439074600079,2106,263,701
5.527079293000497,2286,4095,1397
5.529767215000902,1921,2110,2559
5.5324555130009685,1762,4095,4095
5.535146350999639,1751,3474,2688
5.537883315000727,2293,4095,4095
5.540573612001026,1894,912,2275
5.543263743000352,1943,1236,1296
5.545951539999805,2304,3814,1511
5.548638378999385,2123,49,2155
5.551326800999959,1802,3025,1677
5.554014139999708,1739,2607,2965
5.556704437000008,1791,4095,2363
5.559394109001005,1861,362,2320
5.562082489001114,1919,1745,1339
5.56477153600099,2203,288,598
5.567464292000295,2441,4095,4095
5.570155880999664,1903,2505,2668
5.5728454279997095,1749,3245,3120
5.575534933001109,1761,4095,2352
5.578222813999673,1833,4095,3376
5.580912151999655,1895,1088,1801
5.583600657999341,2017,1152,1033
5.586288746999344,2318,4095,1339
5.588977044000785,2058,681,2290
5.591665715999625,1786,3106,1773
5.594356805000643,1744,3155,2916
5.5970469349995255,1874,4095,4095
5.599742274000164,1869,8,2226
5.602433612999448,1917,266,975
5.6051220770004875,2241,129,412
5.607816624000407,2289,4095,4095
5.6105088380008965,1861,2589,2342
5.613195551000899,1749,2496,2931
5.615881515001092,1765,4095,2272
5.618567061999784,1840,2371,2919
5.621255317999385,1901,1776,1735
5.623945281000488,2086,443,788
5.626628120000532,2320,2481,977
5.629319001000113,2001,1319,2427
5.632010630999503,1771,3875,4095
5.634703470001114,1749,3483,2991
5.63739330899989,2089,4095,4095
5.640081646999533,1879,471,2251
5.6427668609994726,1925,175,1011
5.645456366999497,2257,278,603
5.648144414000853,2199,1673,2599
5.6508674190008605,1824,2852,1845
5.6535582579999755,1722,2096,2755
5.656249055000444,1764,4021,2102
5.658936810999876,1840,935,2486
5.661625816001106,1898,1678,1525
5.664318572000411,2144,116,639
5.667009410000901,2324,4010,1270
5.669700083000862,1947,1665,2467
5.672389880000992,1745,4095,3577
5.675078635000318,1740,3183,2445
5.677767016000871,2253,4095,4095
5.680455020999943,1879,877,2273
5.683142735000729,1930,877,1203
5.685869906999869,2433,3071,1370
5.688557703999322,2279,61,2131
5.691246251000848,1904,2855,1616
5.693933214999561,1789,2822,2941
5.696620304001044,1801,3734,2213
5.699308059000032,1857,96,2254
5.701996105999569,1904,1923,1399
5.7046857370005455,2189,432,666
5.707375326001056,2318,4095,4095
5.71006316400053,1898,2588,2701
5.712753837000491,1738,3174,3063
5.715442091999648,1745,3824,2283
5.718130514000222,1821,4095,3316
5.720819811000183,1884,1399,1858
5.723508233000757,1997,592,933
5.7261985300010565,2304,3307,1117
5.728888703000848,2065,64,2115
5.7315791660003015,1776,3437,1715
5.734266547000516,1734,3094,2933
5.736956094000561,1786,4095,2395
5.739644974000839,1861,32,2150
5.74233131300025,1911,727,1023
5.745020526999724,2225,46,409
5.7477111570005945,2299,4095,3369
5.750399705000746,1862,2175,2053
5.753088917999776,1729,1941,1361
5.7557784239998,1755,3365,1394
5.7584696789999725,1828,2287,2863
5.761160309999468,1887,1642,1699
5.763851482000973,2063,287,726
5.766539529000511,2313,2416,876
5.769231201000366,2003,916,2278
5.771920540000792,1758,2783,1775
5.774629503999677,1733,3130,1917
5.777323009000611,1794,4095,4095
5.78001459799998,1869,340,2191
5.782702394999433,1917,123,934
5.785391483999774,2257,421,533
5.788081906001025,2221,2211,2736
5.790771411000605,1825,2685,1855
5.793459709000672,1727,2096,2716
5.796146631000738,1760,3654,2029
5.798834094000995,1838,1020,2517
5.801521642000807,1895,1685,1532
5.80421048000062,2126,13,621
5.8068971110005805,2320,2816,994
5.8095855329993356,1947,1328,720
5.812273871999423,1744,4095,1151
5.8149559190005675,1728,3109,1243
5.817645798999365,2123,4095,4095
5.820337305000066,1872,554,2171
5.82394172900058,1917,144,959
5.826638693000859,2281,2960,1264
5.829329656000482,1983,899,720
5.832016702999681,1751,4095,1515
5.834703209000509,1733,3780,2992
5.8373894640008075,1782,4095,4095
5.840075345000514,1865,930,2305
5.842760933999671,1915,45,992
5.845446438999716,2258,363,623
5.848134444000607,2199,2128,2725
5.8508209499996156,1817,2206,1748
5.853546164000363,1722,2279,1309
5.856236711000747,1759,4028,1444
5.8589270080010465,1838,139,2287
5.8616161800000555,1893,2557,1626
5.864303436001137,2263,153,675
5.86698881600023,2523,3422,1171
5.869677570999556,2119,1506,2372
5.872364577000553,1849,3962,1872
5.875052207000408,1774,3667,1648
5.877740253999946,2240,4095,4095
5.88042680199942,1872,991,2290
5.883112474000882,1915,112,1013
5.8858329790000425,2278,3184,1254
5.888527234999856,2122,448,2250
5.891239115000644,1788,2443,1568
5.893928871000753,1719,2482,1515
5.896617292999508,1770,3776,1523
5.899301798001034,1846,0,2081
5.901987344999725,1897,1774,1271
5.904675017000045,2189,121,539
5.907363565000196,2314,4095,1360
5.910050944999966,1886,1338,912
5.912749241999336,1727,2352,916
5.915450123000483,1742,3491,1227
5.918140752999534,1815,2939,3037
5.920832383999368,1881,1582,1737
5.923521056000027,2001,0,690
5.92620885299948,2313,4095,1278
5.92889785800071,2058,48,739
5.931586572000015,1771,2362,878
5.934272869000779,1727,3109,1136
5.936961416000486,1778,4095,1499
5.9396496299996215,1855,102,2160
5.942337177000809,1906,827,1073
5.945023432999733,2229,202,483
5.947710730000836,2292,4095,2206
5.950399901999845,1857,2108,1470
5.953088240999932,1727,2070,1107
5.955776454000443,1755,3693,1344
5.9584631270008686,1828,2064,2817
5.961151215000427,1891,1375,1606
5.963838096000472,2066,0,631
5.966524601000856,2304,2288,816
5.969212481999421,2000,477,451
5.971899486999973,1760,2785,1124
5.974587242999405,1731,3290,1225
5.977275956000085,1792,4095,1667
5.979965462000109,1855,459,2198
5.982653801000197,1915,9,926
5.9853443060001155,2258,282,464
5.988049603000036,2221,1614,503
5.990736650001054,1826,2546,818
5.99342515600074,1728,2633,943
5.996113160999812,1762,3537,1211
5.9988069999999425,1838,1762,2725
6.001494714000728,1899,2594,1886
6.004186219000985,2125,576,875
6.006877183001052,2320,3088,1174
6.009616814000765,1951,1169,1650
6.012336194000454,1749,3078,1409
6.015026115999717,1742,3612,1443
6.017716371999995,2061,4095,4095
6.020407293999597,1872,1267,2199
6.023095882999769,1925,0,918
6.025828763000391,2288,3969,1365
6.028520727000796,2126,404,583
6.031236982000337,1794,2802,932
6.033928946000742,1733,2801,2893
6.0366190770000685,1776,4075,2237
6.0393087070006,1853,336,2303
6.041995379000582,1905,2013,1439
6.044682634999845,1808,5,550
6.047371349000969,0,4095,1405
6.050061895999534,0,1555,1039
6.052750318000108,0,2359,2704
6.055468447999374,0,4095,2122
6.058158537000054,34,3583,3247
6.06085000100029,596,1237,1839
6.063538173000779,1303,0,759
6.066226803000973,2021,3721,1219
6.0689150170001085,2001,17,2071
6.071605731000091,1821,1723,1306
6.074293360999945,1791,3547,1408
6.0769816169995465,1830,4095,1623
6.079671956000311,1885,637,2262
6.0823627110003144,1920,983,1165
6.0850523419994715,2235,363,581
6.0877738050003245,2287,3799,1311
6.090497602999676,1911,1532,875
6.093189441000504,1728,2159,886
6.095878197000275,1749,3754,1207
6.09856691099958,1833,1061,2401
6.101256124000429,1889,1635,1434
6.10394679700039,2076,0,578
6.106635759999335,2317,2095,783
6.1093260990001,1984,736,465
6.112018604999321,1751,3961,1118
6.114710359999663,1738,3295,1255
6.117402031999518,1803,4095,1683
6.1200919540006,1871,684,2213
6.122780834999503,1919,315,1051
6.125470131999464,2269,878,784
6.1281648460008,2190,1263,555
6.1308568509994075,1822,1744,653
6.133546982000553,1731,2153,778
6.136237779001021,1767,3328,1125
6.13892715899965,1842,1039,2519
6.141616373000943,1901,1427,1475
6.144316087000334,2151,529,707
6.1470071759995335,2321,2995,1101
6.149697263999769,1936,2304,976
6.15238793699973,1744,3342,1163
6.155075358999966,1744,3123,1264
6.157766656000604,2188,4095,4095
6.160457203000988,1882,548,2192
6.163145708000229,1931,846,1126
6.165885214000809,2294,3312,1377
6.168573553000897,2112,0,527
6.17126318299961,1798,2636,848
6.173954439000227,1734,2773,1057
6.176646111000082,1787,3975,1349
6.1793358249997254,1857,176,2222
6.182022913000765,1915,1535,1296
6.184712501999456,2202,0,506
6.187401258001046,2314,4095,1319
6.1900890130000334,1898,1594,1003
6.192775768000502,1744,1831,869
6.1954638570005045,1753,3986,1234
6.198152154000127,1822,2800,2963
6.2008406599998125,1882,1763,1754
6.203530664999562,2005,219,752
6.20622175400058,2305,3424,1119
6.208916051000415,2053,21,1353
6.211609723000947,1776,2201,1102
6.214298937000422,1728,3043,1152
6.2169911510009115,1786,4095,1463
6.219679572999667,1859,797,785
6.222366412001065,1911,53,315
6.225056041999778,2239,241,226
6.227746298000056,2287,4095,3420
6.230434844999763,1755,1488,1885
6.23312289200112,1105,2007,1266
6.235811730999558,759,3405,1314
6.238500569999815,1180,539,609
6.2411926580007275,2259,1520,654
6.243883913999525,4095,45,303
6.246572919000755,4095,2245,832
6.249262340999849,3536,497,1041
6.251953388000402,2673,4095,1399
6.254642601999876,2187,3109,1350
6.257375899000181,1942,4095,4095
6.260068988000057,1869,352,2160
6.262759827000991,1871,59,925
6.2654494990001695,2222,1011,784
6.268139796000469,2160,1413,587
6.27083017699988,1806,2178,763
6.2735222240007715,1726,2054,829
6.2762136880010075,1773,3273,1160
6.278902109999763,1846,1202,2544
6.281596656999682,1903,1535,1503
6.284287079000933,2151,0,601
6.286976250999942,2320,3249,1132
6.289666922999459,1938,1125,708
6.2923543870001595,1747,2814,877
6.295042559000649,1749,3092,1107
6.297734355999637,1872,4095,4095
6.300421777999873,1881,0,1789
6.3031090759996005,1935,128,751
6.305842456000391,2288,3682,1265
6.308534211999358,2114,709,1569
6.311248300000443,1799,2387,1244
6.313939138999558,1741,2193,2746
6.316629020000619,1782,3658,2110
6.319319817001087,1853,0,855
6.322006489001069,1910,1185,582
6.3246939109994855,2199,12,240
6.327382249999573,2304,4095,1215
6.330072713999471,1891,1789,979
6.332764926999516,1744,2240,845
6.3354553490007675,1758,3574,1219
6.33814502200039,1829,3071,3098
6.34083536000071,1888,1233,1685
6.343523408000692,2018,315,766
6.346210162999341,2307,3730,1093
6.348898627000381,2044,82,449
6.351588965999326,1779,2349,759
6.354277929000091,1741,3057,1051
6.356966684999861,1797,4095,1534
6.359655774000203,1870,0,2078
6.3623434040000575,1918,396,918
6.365031868001097,2239,395,496
6.367722914999831,2279,3118,895
6.3704113790008705,1859,1775,766
6.373100800999964,1741,2021,812
6.3757906400005595,1771,4095,1264
6.378478937000182,1839,1786,2631
6.381168026000523,1897,1217,1488
6.383855906000463,2085,9,597
6.386542870000994,2315,2220,774
6.389233042000342,1998,189,352
6.391925714000536,1771,3014,1018
6.394617969001047,1745,2879,1117
6.397306683000352,1806,4095,1665
6.399998564000271,1872,7,2059
6.4026894029993855,1921,156,931
6.4053779910009325,2261,1167,809
6.40806732999954,2206,47,2075
6.410755377000896,1831,3275,1701
6.413445258000138,1741,1936,2658
6.416134638000585,1776,3568,2039
6.418821143999594,1847,1978,2770
6.421510357000443,1904,592,1408
6.424198988001081,2137,292,622
6.426886201999878,2377,3095,1090
6.429572957000346,1531,770,593
6.432265712001026,1238,3059,958
6.4349556760007545,1354,3519,1247
6.437645807000081,1968,4095,4095
6.440334561999407,1777,689,2214
6.443022776000362,1901,71,951
6.445715531001042,2291,2967,1225
6.448404704000495,2147,240,499
6.451091376000477,1825,2399,785
6.4537809640005435,1746,2379,945
6.456471720000991,1792,4095,1344
6.4592158920004294,1861,866,2427
6.461912063999989,1906,1712,1467
6.464604528000564,2190,247,645
6.467295116999594,2317,4095,1367
6.469983331000549,1900,2310,1103
6.472672919000615,1744,2630,971
6.475363507999646,1762,3659,1290
6.478050305000579,1817,3888,3271
6.480739185999482,1891,94,1523
6.483427107999887,2000,80,635
6.486114737999742,2301,4095,1198
6.488802452000527,2064,0,451
6.491495665999537,1786,2490,784
6.494183504999455,1744,2853,1013
6.496871843999543,1795,4095,1438
6.49956122399999,1869,0,2073
6.502249604000099,1919,28,875
6.504937318000884,2227,321,415
6.5076336990005075,2292,4095,2543
6.510321245999876,1872,2486,1682
6.513012417999562,1747,2663,1311
6.515702840000813,1774,2457,1175
6.518390429000647,1841,2011,2671
6.52107985099974,1903,995,1433
6.523768689999997,2069,577,700
6.526459487000466,2306,2412,879
6.529150742000638,2000,140,2131
6.531840830999499,1769,4095,4095
6.534529212000052,1743,2902,2880
6.537217549999696,1797,4095,2435
6.539906931000587,1860,604,2224
6.54259472800004,1914,64,973
6.545284358000572,2260,151,463
6.547972779999327,2217,1966,704
6.550664035999944,1841,2026,764
6.55335420800111,1743,2099,835
6.556045839000944,1776,3573,1172
6.558737719000419,1846,738,2393
6.561431599000571,1905,1344,1370
6.564121437999347,2128,199,598
6.566808401999879,2320,2951,995
6.569499282000834,1963,1168,674
6.572191287999885,1764,4095,3456
6.574878417999571,1751,3216,2384
6.577568590999363,2167,4095,4095
6.5802571380008885,1884,455,2160
6.582943475999855,1926,69,923
6.585632190000979,2281,2554,1111
6.588321237000855,2144,1967,2671
6.591010701000414,1812,2450,1782
6.593702789999952,1745,2242,1941
6.596393087000251,1787,3306,1671
6.599080301000868,1858,209,2138
6.601772181000342,1908,1169,1200
6.604462478000642,2174,272,539
6.607182484000077,2314,4095,1341
6.609874239000419,1879,2581,2300
6.612564119999661,1296,2463,2897
6.615254083999389,895,3248,2118
6.617942131000746,1171,4095,3310
6.620631928000876,2033,825,1713
6.623324517000583,3343,394,857
6.62601360500048,4095,4095,1483
6.62870286100042,3583,79,670
6.631392782999683,2651,2639,900
6.634082663000299,2160,2899,2832
6.636772793999626,1919,4095,2310
6.639460966000115,1853,275,2230
6.642148138000266,1865,1237,1203
6.644837019000988,2165,129,508
6.647525774000314,2265,4095,2559
6.6502141960008885,1857,1679,1575
6.65290299300068,1739,2106,1201
6.655593665000197,1765,3478,1345
6.658283295999354,1839,2443,2853
6.661005676000059,1898,919,1491
6.663696724001056,2061,511,705
6.666385521000848,2308,2414,819
6.669075609001084,2006,1131,603
6.6717629070008115,1776,2525,953
6.674451037000836,1749,3423,1158
6.6771395840005425,1808,4095,4095
6.679827547999594,1874,0,2057
6.682514137000908,1920,48,880
6.685201934000361,2253,289,448
6.687892313999328,2225,2007,606
6.6905822360004095,1846,1895,702
6.693270908999693,1744,2288,795
6.695958247000817,1774,3180,1099
6.69864421100101,1847,941,2390
6.7013338830001885,1905,1451,1405
6.704021264000403,2114,0,557
6.706707810999433,2319,2874,1015
6.709397066000747,1969,1057,2316
6.712087654999777,1770,4095,1932
6.7147751600004995,1756,3303,1651
6.717464999001095,1927,4095,4095
6.720155295999575,1884,762,2238
6.722846009999557,1924,619,1133
6.725535098999899,2271,2069,1072
6.728225520999331,2159,967,1257
6.730912568000349,1822,2464,1115
6.733602407000944,1746,2032,2655
6.736289828999361,1789,3309,1999
6.738976001000992,1850,646,2288
6.74166513199998,1905,1773,1424
6.744353262000004,2161,297,639
6.747040518001086,2327,4095,1342
6.749729106000814,1933,2439,2641
6.752419194999675,1761,2970,2223
6.755108491999636,1757,3395,1807
6.757838663999792,1952,4095,4095
6.760530420000578,1886,752,1999
6.763241884000308,1968,350,917
6.765931347999867,2294,4095,1223
6.768621686000188,2087,95,2145
6.771311149999747,1799,2963,1638
6.774000196999623,1745,2878,2826
6.776689369000451,1793,4095,2233
6.779379458001131,1863,21,2083
6.782070713999929,1915,871,1040
6.78476084400063,2211,5,412
6.787450391000675,2304,4095,1655
6.790140772000086,1882,1845,1120
6.792832110000745,1745,2428,1038
6.795519282999521,1767,3895,1330
6.798207412999545,1840,3269,3163
6.8008978350007965,1895,1108,1729
6.803585216001011,2041,113,715
6.806273554000654,2357,2559,889
6.808964768000806,1709,554,481
6.811654565000936,1284,2608,842
6.814344696000262,1338,3323,1171
6.817036742999335,1535,4095,1662
6.8197264980008185,1748,46,2071
6.822414711999954,1875,415,1000
6.825102884000444,2242,21,403
6.827793931000997,2256,1844,547
6.830482187000598,1869,2960,945
6.833171484000559,1757,2263,2752
6.835860073000731,1777,3542,2065
6.838541869999972,1846,2091,2837
6.841229792000377,1903,373,1360
6.843920421999428,2103,80,561
6.846610345000954,2317,2291,2869
6.849301100000957,1975,921,1493
6.851989897000749,1767,4095,1654
6.854677653000181,1753,3456,1520
6.857366407999507,2043,4095,4095
6.860056163000991,1884,256,2122
6.863268627999787,1922,395,995
6.866002717000811,2271,1566,878
6.868733473000248,2074,144,388
6.871464103000108,1794,2441,739
6.874190608999925,1745,3002,1053
6.876919323000038,1798,4095,1601
6.879645827999411,1872,0,2096
6.882370625000476,1918,468,960
6.885098173001097,2240,97,407
6.887825595000322,2251,3333,3134
6.8905512250003085,1842,1402,1743
6.893281313999978,1743,1991,1239
6.89600727800098,1776,3071,1250
6.89873149199957,1846,339,557
6.901463706000868,1904,1535,593
6.904190045001087,2138,26,227
6.906915966999804,2311,3625,1040
6.909644638999453,1949,1168,2297
6.912373645000116,1763,3211,1661
6.915102524999384,1766,3408,1535
6.9178695310001785,1839,4095,4095
6.920611411000209,1894,909,2005
6.923338750000767,1984,51,845
6.926064589000816,2292,3977,1189
6.9287926359993435,2061,0,892
6.93152018299952,1780,2559,991
6.934244563999528,1744,2967,2288
6.9369708610011,1796,4095,2131
6.9396964080006,1869,0,2105
6.942421997000565,1920,98,902
6.9451488360009535,2250,73,404
6.947876050000559,2237,2006,592
6.9506001390000165,1845,1810,671
6.953330853000807,1739,2256,803
6.95605735800018,1775,3761,1181
6.958781239000018,1847,772,2314
6.961522618999879,1904,1023,1242
6.964262999999846,2154,256,562
6.966987714000425,2320,3814,1152
6.969714553000813,1935,1898,880
6.972440015999382,1754,2605,975
6.975214104999395,1757,3003,1151
6.9779462780006725,1830,3870,3188
6.980675615999644,1889,1250,1713
6.98340262199963,2000,381,784
6.986128794000251,2303,3421,1040
6.988855675001105,2053,10,369
6.991584221999801,1498,2097,673
6.994311561000359,925,3013,979
6.997039025000049,951,4095,1579
6.99976307200086,1691,0,2113
7.002486160999979,2831,69,941
7.005221916000664,4095,417,551
7.007953213000292,4060,2111,1776
7.0107405519993335,2826,2113,1246
7.01350576600089,2237,2197,1058
7.016237689000263,1940,3238,1196
7.018964569000673,1855,701,2364
7.021694782999475,1856,889,1245
7.024423496999589,2117,250,560
7.02718787699996,2286,3711,3161
7.029928965999716,1887,1203,1657
7.032661430001099,1740,2208,1253
7.0353903110008105,1759,3537,1379
7.038120274999528,1833,3255,3189
7.040855405000912,1898,733,1642
7.043583077000221,2041,0,670
7.046308375000081,2309,2430,851
7.0490367130005325,2013,868,558
7.051764093999736,1773,2517,950
7.054491016000611,1744,3184,1201
7.057219604999773,1811,4095,4095
7.059949111000606,1877,1013,2314
7.062675699000465,1927,167,1046
7.06591216400011,2271,1057,830
7.068608128000051,2181,685,418
7.07130163399961,1791,2436,780
7.073992222000015,1744,2767,970
7.0766824780002935,1796,4095,1510
7.079371608000656,1862,0,2175
7.0820586970003205,1917,368,961
7.084749911000472,2219,43,399
7.087440833000073,2307,3937,1023
7.090129755000817,1879,1535,749
7.092822010999953,1742,2207,819
7.095577182999477,1767,3558,1194
7.098282771999948,1838,2240,2802
7.100971277001008,1896,1179,1520
7.103660115999446,2070,426,683
7.106348995999724,2317,2139,818
7.109036918000129,2006,523,529
7.111726590999751,1773,2159,1040
7.114415013000325,1744,3129,1191
7.117106560001048,1805,4095,4095
7.1197976490002475,1873,463,2192
7.122486195999954,1921,133,954
7.125176700999873,2259,1396,774
7.127867248000257,2224,2045,1052
7.130554253999435,1840,2137,931
7.133243592999861,1739,2064,917
7.135936972999843,1774,3479,1200
7.138627353000629,1846,1499,2633
7.141318317000696,1904,1103,1446
7.144007864000741,2129,16,578
7.146695077999539,2324,2816,987
7.149385541999436,1959,1321,688
7.152075797001089,1757,4001,1167
7.154762303000098,1749,2963,1223
7.157453308000186,2160,4095,4095
7.160141771999406,1882,464,2175
7.162833485999727,1926,640,1104
7.165523075000237,2289,2739,1185
7.168213205000939,2153,236,496
7.170908043999589,1811,2606,832
7.173599133000607,1737,2607,1009
7.176288638000187,1782,3328,1232
7.17897589399945,1856,202,2117
7.181666481999855,1907,1504,1286
7.184354570999858,2176,53,511
7.187040992999755,2244,4095,1403
7.189729665000414,1263,1371,2375
7.192419295999571,1061,3447,3226
7.195107260000441,1264,3549,2338
7.197849807000239,1535,4095,3371
7.20053993700094,1780,817,1734
7.203233150999949,1968,270,788
7.205921532000502,2323,4095,1319
7.208610079000209,2105,16,511
7.21130525099943,1807,2429,814
7.213994630999878,1745,3112,1055
7.2166825530002825,1792,4095,1445
7.219371434001005,1871,0,2064
7.222059314000944,1920,240,887
7.224747277999995,2230,49,383
7.227436700000908,2314,4095,2733
7.230128539000361,1872,1683,1627
7.232822128000407,1739,2272,1232
7.235511175000283,1760,3543,1360
7.238198597000519,1835,2219,2746
7.240885686000183,1899,979,1456
7.243574649999573,2065,286,635
7.24626423799964,2321,2559,834
7.248955910999939,2014,726,523
7.251644457999646,1766,2592,851
7.254331546000685,1737,3070,1134
7.257019968999884,1798,4095,4095
7.25970739100012,1875,135,2112
7.262396021000313,1920,106,908
7.265089693000846,2266,35,391
7.2678246989999025,2247,3521,3136
7.27051599600054,1840,2013,1898
7.27320579300067,1726,2285,2853
7.275899382000716,1770,3222,2016
7.278586428999915,1847,1366,2613
7.281277850999686,1903,1738,1613
7.283966148001127,2128,20,640
7.286655445001088,2331,2706,1001
7.289342992000456,1957,896,613
7.292031914999825,1747,3582,1058
7.294721919999574,1739,3847,1346
7.297413674999916,2256,4095,4095
7.300102098000934,1881,759,2267
7.302788311000768,1933,97,965
7.305482734000179,2295,2396,1113
7.308171071999823,2157,486,485
7.310858494000058,1806,2300,762
7.313548583000738,1730,2643,977
7.316238213999895,1729,3014,1189
7.318921719001082,1855,820,2299
7.321612558000197,1915,1502,1390
7.324305480000476,2189,0,551
7.3269970689998445,2335,4095,1268
7.329687032999573,1918,1564,862
7.332375412999681,1741,2864,1018
7.3350633770005516,1751,3555,1296
7.337751881999793,1825,4095,3515
7.3404410130006,1893,1086,1862
7.343129310000222,1984,41,791
7.345847648999552,2315,4095,1285
7.3485372369996185,2083,23,2055
7.351256660000217,1779,2501,1489
7.353946872999586,1726,2991,1345
7.356638295999801,1782,4095,1567
7.3593292589994235,1861,112,2112
7.362017432000357,1918,353,938
7.364704937001079,2240,75,395
7.367394609000257,2325,4095,1413
7.3700821149996045,1789,2101,1074
7.372769494999375,1204,2167,905
7.375458583999716,1008,4095,1392
7.378145464001136,1687,2643,3037
7.380833761000758,3027,2783,2100
7.3835217249998095,4095,471,989
7.38620835599977,4095,3101,3063
7.388897486000133,4095,1013,1637
7.391588450000199,3297,2231,1227
7.394276996999906,2638,3127,1287
7.3969655860000785,2214,4095,1683
7.399656591000166,1997,50,2079
7.402343679999831,1907,66,876
7.405029685000045,2219,256,433
7.407719398999689,2204,2583,1280
7.41040607099967,1796,1808,927
7.413091827000244,1706,2057,899
7.415813581999828,1754,3486,1207
7.418507046000741,1843,1680,2686
7.4211992180007655,1894,1520,1579
7.4238895990001765,2134,53,656
7.426577979000285,2350,2677,1009
7.429267151001113,1968,1152,673
7.431955072999699,1740,4095,1254
7.434642037000231,1741,3279,1331
7.437328959000297,2032,4095,4095
7.440016381000532,1885,592,2212
7.442701803000091,1932,357,1021
7.445391933999417,2303,2223,1023
7.448081022999759,2175,788,530
7.450767444999656,1804,2240,755
7.453454742000758,1725,2375,850
7.456155247000424,1772,3664,1216
7.458850711000196,1859,690,2403
7.461567217000265,1915,2352,1667
7.4643110140004865,2192,34,670
7.466999768999813,2343,4095,1401
7.469733982999969,1905,897,2253
7.472425863999888,1733,3219,3143
7.4751174110006104,1746,3654,2298
7.477845833000174,2159,4095,4095
7.480535754999437,1898,2334,2621
7.483246801999485,2011,64,1148
7.485938308000186,2331,3984,1301
7.488628938001057,2067,1356,886
7.491318444001081,1771,2193,869
7.494006365999667,1725,3203,1137
7.49669558000096,1791,4095,1534
7.499383835000117,1871,109,2087
7.502069341000606,1923,197,896
7.5047558460009895,2256,270,442
7.507442935000654,2317,3466,944
7.510128440000699,1855,1840,800
7.512814612000511,1725,2240,851
7.515504618000705,1758,3835,1263
7.518198248000772,1838,2036,2768
7.5208924199996545,1903,1311,1535
7.5235828010008845,2087,327,671
7.5262692230007815,2345,2351,867
7.528957227999854,2000,416,1105
7.5316461920010624,1753,1926,1217
7.534333948000494,1729,3233,1244
7.537022120000984,1798,4095,1703
7.5397123340007965,1879,391,2177
7.5423961720007355,1930,104,928
7.545083094000802,2284,240,479
7.547772474999874,2240,1647,539
7.550460521999412,1823,1967,689
7.553149569001107,1718,2290,816
7.55583978300092,1763,3619,1187
7.55852632999995,1845,811,2353
7.561213086000862,1907,1381,1382
7.5639015910001035,2147,21,556
7.566588388001037,2345,2611,960
7.569276894000723,1377,71,358
7.571965482000451,1065,4095,1008
7.57465252899965,1223,3146,1179
7.577341910000541,1941,4095,4095
7.580030249000629,1755,2257,2704
7.5827182960001664,1902,274,2207
7.5854091350011,2318,1951,1535
7.588096515000871,2191,1136,2431
7.590784145000725,1817,2104,1573
7.593471817999671,1731,2265,1200
7.596160447999864,1776,3133,1259
7.598847453000417,1857,1033,2465
7.601535125999362,1913,1802,1530
7.604220922999957,2192,11,623
7.606907678000425,2352,4095,1280
7.609594683999603,1910,1328,1415
7.612281439000071,1727,2363,1155
7.614970986000117,1739,3181,1255
7.617660575000627,1818,4095,3441
7.6203480799995305,1892,1071,1831
7.6230343360002735,1968,243,806
7.625722716000382,2332,4095,1245
7.628411138000956,2106,81,758
7.63109547699969,1776,2112,812
7.633823399000903,1721,2960,1075
7.636514947000251,1785,4095,1405
7.639229534999686,1863,30,2128
7.641919457999393,1919,1393,1200
7.644607463000284,2245,176,511
7.64729863499997,2336,4095,2604
7.649987681999846,1866,1796,1680
7.6526748960004625,1717,2184,1186
7.655361525999979,1749,3268,1327
7.658048032000806,1836,2368,1083
7.660733620999963,1902,894,671
7.663420793000114,2065,391,336
7.666108048000751,2343,2641,745
7.668795804000183,2026,63,308
7.6719694349994825,1754,1328,467
7.674702481999702,1735,2640,882
7.677431988000535,2234,4095,4095
7.680162492999443,1888,1167,2353
7.682889916000931,1938,527,1130
7.685619296000368,2322,3671,1345
7.6883470520006085,2123,311,558
7.691071932000341,1783,2439,815
7.693799353999566,1718,2943,1061
7.696529360000568,1782,4095,1413
7.70021032600016,1869,0,2197
7.702951455999937,1921,995,1133
7.705680004000897,2327,3330,1369
7.708406051000566,2110,123,528
7.711131097999896,1774,2341,777
7.713893520000056,1726,2850,1057
7.716621900999598,1783,4095,1494
7.719349281000177,1869,0,2085
7.722075412000777,1926,366,925
7.724803041999621,2262,74,407
7.727529756000877,2304,3254,912
7.730254052999953,1840,2005,821
7.732980934000807,1722,2220,853
7.735709230999419,1755,3635,1191
7.738434237000547,1841,1791,2710
7.741163867000068,1911,1888,1680
7.743891373000224,2150,176,725
7.746619086999999,2352,2822,1050
7.749348049999753,1927,1812,855
7.75207618100103,1440,4095,2768
7.75480122800036,1350,3309,1987
7.757528317000833,2529,4095,4095
7.76025532300082,4095,373,2012
7.762980744999368,4095,417,942
7.76570804199946,4095,4095,1348
7.768434214000081,4095,0,511
7.771198803000516,4095,2021,827
7.773929184000735,3799,2736,1022
7.776658480999686,2945,4095,1597
7.779386653000984,2419,217,2177
7.7821114500002295,2100,1233,1178
7.784839039000872,2257,587,627
7.787566420000076,2225,3680,1787
7.79029221699966,1773,1647,1131
7.7930177220005135,1673,2069,956
7.7957440610007325,1741,3173,1169
7.7984776080011216,1840,1828,2737
7.801207821999924,1917,2081,1756
7.803934118999678,2161,32,719
7.806661083001018,2352,3130,1147
7.809390464000899,1942,1087,726
7.812118178000674,1744,3071,1023
7.8148418920009135,1746,3519,1233
7.81756943900109,1943,4095,4095
7.820297569000104,1895,1455,2170
7.823022033000598,1969,393,999
7.82574933000069,2321,3930,1271
7.828477168999598,2082,121,526
7.831237258000328,1759,1965,690
7.8339646799995535,1715,2722,946
7.836694810999688,1783,4095,1391
7.839421066000796,1869,0,2077
7.842146072000105,1923,141,880
7.84487270200043,2275,180,410
7.84760016600012,2284,2748,775
7.850323589000254,1829,1679,683
7.853050302001066,1715,2099,769
7.855776725000396,1763,3215,1082
7.858501312999579,1851,1309,2554
7.861227818999396,1908,1605,1515
7.8641933250000875,2163,0,613
7.866918163999799,2352,4095,1382
7.869645586000843,1906,1723,2444
7.8728848840000865,1727,2254,1629
7.875578889999815,1732,3674,1535
7.878268229000241,1846,1891,2689
7.880957941999441,1904,1556,1600
7.883646573000078,2123,76,659
7.886332661999404,2340,2271,899
7.889020124999661,1980,185,1995
7.891708172001017,1744,4095,4095
7.894395470000745,1735,2971,2781
7.897083682999437,1807,4095,2261
7.8997717300007935,1879,498,1211
7.902460152999993,1932,237,555
7.905148408000969,2301,677,555
7.9078361640004005,2205,2046,2698
7.910523044000001,1808,1467,1535
7.913213799000005,1721,2263,1221
7.915900722000515,1769,3203,1315
7.918588268999883,1851,161,529
7.92127602400069,1917,1695,635
7.923960905000058,2174,16,243
7.926647493000928,2352,3408,1022
7.929335164999429,1933,748,1610
7.932023253999432,1730,3502,1447
7.934709176000979,1739,3223,1398
7.937399307000305,2102,4095,4095
7.9400886870007525,1893,778,2074
7.942774151000776,1946,320,948
7.945463530999405,2320,2705,1173
7.94815153700074,1735,368,475
7.950839917000849,1072,1917,640
7.953531672999816,1111,2595,944
7.956221177999396,1391,3919,1315
7.958908475000499,1671,301,2201
7.96159652300048,1855,2624,1597
7.964285111000208,2216,17,634
7.966971742000169,2363,4095,1415
7.969660955999643,1912,1506,957
7.972347253000407,1744,1971,861
7.975033758000791,1745,4095,1300
7.977723305000836,1838,3234,3118
7.980410768999718,1898,590,1535
7.983096816000398,2019,48,642
7.985827071999665,2335,3578,1008
7.988517576999584,2064,22,2127
7.991231624000648,1764,3627,1743
7.993920588000037,1729,2916,2847
7.996609927000463,1790,4095,2288
7.999304431999917,1875,0,2078
8.001992771000005,1938,123,880
8.004685776999395,2259,100,383
8.007378031999906,2303,4095,2057
8.010066871000163,1843,2047,1339
8.012806835000447,1719,2281,1011
8.01552271500077,1763,3431,1263
8.018211304000943,1842,1822,2713
8.020900768000502,1907,1423,1583
8.02358802299932,2119,144,658
8.0262746540011,2343,2371,879
8.02896149300068,1979,698,640
8.031651122999392,1743,4095,1413
8.034337836999839,1732,3019,1424
8.037025966999863,1804,4095,4095
8.039714722999634,1883,653,2242
8.042400894999446,1934,47,969
8.045087775000866,2298,959,749
8.047776281000552,2205,1814,2590
8.050463453000702,1808,1872,1605
8.053151250000155,1718,2416,1210
8.055902629999764,1774,3279,1235
8.058621803000278,1854,801,2280
8.061364392000542,1911,1346,1333
8.064075813999807,2189,121,563
8.066772194000805,2341,4095,1248
8.069468740999582,1909,1656,1374
8.072162579999713,1727,2621,1196
8.075305378000849,1741,3577,1347
8.078042008999546,1821,4095,3246
8.080772430999787,1903,1520,1807
8.083501728000556,2092,832,919
8.086227359000986,2337,2384,2909
8.088954531000127,1985,675,1456
8.091681994999817,1744,3979,1591
8.094408667000607,1729,3235,1418
8.097137422000742,1937,4095,4095
8.09986505300003,1887,959,2351
8.102599933999954,1936,170,1047
8.105374356000539,2304,2037,1071
8.10810936100097,2128,667,504
8.110837534000893,1783,1975,688
8.115385334000166,1723,2431,930
8.118118506999963,1840,2165,2784
8.120849553999506,1904,1921,1712
8.123575392999555,2107,130,707
8.126303773000473,2342,2357,847
8.129034778999994,1903,738,511
8.131763950999812,1023,4095,1226
8.134490082000411,473,3583,1342
8.137218211999425,1108,4095,4095
8.139947134000977,2556,608,2390
8.142675180999504,4095,22,1088
8.14540481199947,4095,2787,1261
8.148133275999498,4095,484,560
8.150858197999696,4000,2039,780
8.153587411999979,3056,2830,1065
8.156316376000177,2485,4095,1344
8.159045255999445,2138,4,2128
8.161775304000912,1961,1043,1099
8.16450368400001,2186,32,439
8.167262106000635,2256,4095,1150
8.169989154001087,1805,1685,847
8.17271861700101,1693,2122,869
8.175450664999516,1744,4095,1300
8.178180795001026,1837,1803,2629
8.180909134000103,1910,1129,1440
8.183637473001,2126,292,624
8.186363270000584,2349,2369,886
8.189092984001036,1966,523,2186
8.191820156000176,1744,4095,1914
8.194546619999528,1739,2559,1395
8.197274292000657,2027,4095,4095
8.200002630999734,1888,576,2202
8.20273047000046,1940,543,1067
8.205465392000406,2317,2787,1211
8.208190023000498,2123,237,2495
8.210915945001034,1777,1974,1578
8.213655534000281,1723,2535,1325
8.216382247999718,1784,3727,1450
8.219107003000317,1867,0,2064
8.221883342001092,1923,783,1003
8.224615764000191,2251,65,421
8.227344602999437,2305,4095,1049
8.230070483999953,1843,1680,796
8.232798947999981,1718,2131,783
8.23552632800056,1759,3609,1171
8.238254625000991,1841,1687,2608
8.240987006000069,1904,1050,1434
8.243714136000563,2137,0,578
8.246438391999618,2335,2496,940
8.24916618899988,1947,960,595
8.25189265300105,1734,4095,2702
8.254627950000213,1741,2897,2018
8.257356497000728,2096,4095,4095
8.260084461000588,1886,699,2112
8.262808675000997,1954,527,1040
8.265536889000941,2319,2919,1259
8.268264145001012,2099,14,484
8.270992775000195,1773,2224,722
8.273724321999907,1725,3129,1076
8.276993286999641,1787,4095,1456
8.27968629300085,1870,22,2166
8.282375005999711,1930,112,939
8.285064011999566,2295,979,671
8.287751850999484,2195,1262,505
8.290439106000122,1807,1805,628
8.29312723700059,1715,2229,819
8.295816158999514,1771,4095,1262
8.298502372999792,1854,0,2101
8.301190378000683,1911,2061,1415
8.303886050000074,2173,230,605
8.306577264000225,2346,2892,996
8.309264810999593,1924,561,502
8.311954066000908,1727,3433,996
8.314642072000424,1743,3432,1264
8.317329826999412,2161,4095,4095
8.320016790999944,1894,1472,2406
8.322704546999375,1950,241,1086
8.325392509999801,2297,2955,1235
8.328089683000144,1648,511,958
8.330776729999343,1009,2058,880
8.333464651999748,1045,2495,1035
8.336154448999878,1359,3231,1276
8.338842787999965,1658,99,2115
8.341531334999672,1854,1424,1215
8.344218673999421,2213,45,480
8.346904512000037,2352,4095,1373
8.349592851000125,1909,1221,894
8.35227993999979,1744,2160,890
8.354969779000385,1750,3187,1136
8.357658117000028,1829,2891,2992
8.360345331000644,1899,906,1558
8.36303141999997,2013,177,660
8.365717550001136,2329,3799,1196
8.368404222999743,2063,0,434
8.371110060999854,1765,1926,658
8.373853524999504,1725,3022,1007
8.376541489000374,1794,4095,1526
8.379240244999892,1874,135,2155
8.381923332999577,1925,1039,1138
8.384613172000172,2257,12,449
8.387306136000916,2294,3755,1010
8.38999585000056,1844,1366,727
8.392685855000309,1728,2105,830
8.395376276999741,1763,4095,1298
8.39806657400004,1845,1059,2419
8.40075774700017,1907,1738,1489
8.403449502000512,2105,275,679
8.406137965999733,2332,2347,791
8.4088281380009,1989,618,461
8.411516227000902,1749,3100,1165
8.414202314999784,1737,3295,1280
8.416889445999914,1808,4095,4095
8.419577368000319,1886,112,2107
8.42226483200102,1935,64,880
8.424954087000515,2278,507,543
8.427644384000814,2201,1829,599
8.430334848000712,1817,1851,670
8.433027187000334,1727,2322,801
8.435716150999724,1776,3615,1123
8.438401405999684,1855,1058,2439
8.441090328000428,1909,1338,1405
8.44378233399948,2160,0,557
8.446470255999884,2327,2854,1005
8.449160053000014,1935,1186,650
8.451847808999446,1744,4095,1102
8.454536397000993,1744,2959,1205
8.457225569000002,2130,4095,4095
8.45991340799992,1893,158,2069
8.462601704999543,1938,448,999
8.465291918999355,2303,2624,1127
8.467980007999358,2128,699,535
8.470665721999467,1795,1590,585
8.473353727000358,1744,2279,848
8.476043190999917,1782,2838,1082
8.478756321001129,1866,296,2155
8.48144699400109,1920,985,1165
8.484134541000458,2199,176,486
8.486822671000482,2320,4095,1335
8.4895105100004,1902,1377,2378
8.492197806999684,1743,3434,2681
8.49488585400104,1761,2789,1906
8.497575276000134,1831,2672,1382
8.500264407000941,1902,715,720
8.502951704000225,2013,658,459
8.505640376000883,2305,3088,955
8.508327089999511,2064,0,2090
8.511014179000995,1627,1862,1330
8.513699601000553,1470,2970,1245
8.516386897999837,2149,3696,1447
8.519071528000495,3915,0,2188
8.521760284000266,4095,474,1008
8.52444870600084,4095,52,417
8.527135710999573,4095,4095,1136
8.529863883000871,4095,1734,955
8.532585263999863,4095,1923,934
8.535307894000653,3441,3713,1264
8.53800473299998,2736,1977,2646
8.540695822000998,2289,1071,1395
8.543388244001108,2176,141,576
8.546077166000032,2271,2256,795
8.548792171999594,1914,603,452
8.551484302000972,1702,2781,1167
8.554193015999772,1712,2989,1167
8.556907604999651,1796,4095,2127
8.559630485000525,1882,318,2115
8.562332158000572,1936,189,959
8.565030746000048,2338,400,599
8.567748544001006,2175,1358,654
8.570462841000335,1817,2087,768
8.573161845999493,1743,1969,799
8.575854059999983,1790,2882,1019
8.578569106999566,1861,37,378
8.58129915400059,1921,886,398
8.584016535000046,2176,254,212
8.586723248999988,2306,4095,1185
8.589418045999992,1905,902,1296
8.5921133009997,1746,2896,1257
8.594807597999534,1765,3447,1346
8.597499228999368,1835,3218,2003
8.60018831799971,1898,1172,1115
8.602891406999333,1995,889,647
8.605596078999952,2288,4095,1472
8.608291501001077,2064,118,667
8.610981089999768,1782,1762,691
8.61367730299935,1744,3109,1007
8.616370850999374,1801,4095,1423
8.61905748100071,1873,280,2142
8.621743695000987,1923,1898,1341
8.624430784000651,2223,46,555
8.627116247000231,2285,4095,1234
8.629843545000767,1863,1503,832
8.632537800000136,1744,2106,853
8.635231930000373,1776,3887,1207
8.637919685999805,1846,2125,2737
8.640609482999935,1907,1124,1498
8.643297529999472,2078,341,673
8.645987118999983,2302,2240,843
8.648676832999627,1997,586,473
8.651367963000666,1766,2074,752
8.654061260000162,1747,3023,1071
8.656750223999552,1815,4095,1583
8.659439605000443,1888,0,2035
8.662130568000066,1933,65,854
8.664821989999837,2255,188,405
8.667512620999332,2205,2403,700
8.6701993759998,1834,2489,873
8.672888965000311,1741,2165,2614
8.67558034600006,1785,3456,1983
8.678267268000127,1857,1296,2475
8.681395023999357,1911,635,1232
8.684028695999586,2130,45,486
8.686657910000577,2298,3935,1184
8.689286373000868,1905,800,622
8.691914254000949,1747,2235,842
8.6945426759994,1761,3406,1180
8.697173222999481,1817,4095,3536
8.699802520000958,1895,1456,2000
8.702428942000552,1936,397,960
8.70506198899966,2187,1609,843
8.707694036000248,1427,295,322
8.710321583001132,661,2171,656
8.71294762999969,752,2190,771
8.715574927000489,1159,3411,1181
8.718201098999998,1535,1616,2704
8.720826521001072,1806,1575,1613
8.723457067999334,2112,49,649
8.726084572999753,2334,2326,851
8.728713787000743,2017,442,445
8.731342084000062,1792,1798,982
8.73396896399936,1767,2639,1052
8.736597303000963,1821,4095,1505
8.739224725000895,1887,59,2044
8.741849604999516,1927,47,858
8.744477109999934,2225,38,368
8.747099324000374,2262,3871,1023
8.74972782900113,1857,1597,781
8.752358375999393,1744,2416,793
8.754985465000573,1775,3917,1235
8.757613637000759,1840,2913,3066
8.760240601000987,1903,1184,1660
8.762864939000792,2011,633,831
8.765492528000323,2288,4095,1286
8.76812478300053,2066,0,479
8.770753580000019,1791,2116,713
8.773383044001093,1745,3206,1123
8.776012299000286,1793,3275,1264
8.778639096000916,1869,886,2335
8.781268685001123,1920,1200,1328
8.783937774000151,2173,0,528
8.786563736999597,2301,3167,1044
8.789192451000417,1919,997,642
8.791823206000117,1758,2789,885
8.794449962000726,1761,3634,1193
8.79707800899996,1830,4095,1535
8.799707389000105,1894,995,929
8.802333769001052,1936,186,426
8.80496627499997,2261,1136,610
8.807596863000072,2159,1453,528
8.810223869000765,1826,1669,597
8.812851082000634,1744,2094,832
8.815478837999763,1791,3385,1152
8.818105176000245,1861,1006,2369
8.820731682000769,1914,1758,1481
8.823358769999686,2102,139,594
8.825984859000528,2286,2162,813
8.828614072999699,1977,1427,662
8.831241744999716,1766,2183,801
8.83386770800098,1742,3207,1111
8.83649658899958,1804,4095,1461
8.839122426999893,1878,0,2009
8.841780266000569,1923,320,879
8.844410063000396,2225,0,344
8.84703627700037,2273,4095,1046
8.849665157000345,1869,1667,806
8.852293703999749,1747,2170,868
8.854926584001078,1774,3675,1200
8.857556756000122,1841,2875,2987
8.860186178000731,1902,833,1521
8.862812766999923,2007,446,727
8.865440064000722,2288,3583,1232
8.868068361000041,2074,16,459
8.870695158000672,1798,2001,669
8.873323412999525,1746,2757,942
8.875951834999796,1796,3433,1248
8.878577174000384,1872,773,2299
8.881579512999451,1922,2603,1655
8.88431385200056,2165,0,662
8.88704556599987,2283,4095,1306
8.889775738000026,1811,1305,820
8.892507161001049,1421,1891,795
8.89526879100049,1535,3835,1216
8.897999880000498,2496,2113,2736
8.900729761000548,4095,1399,1614
8.903460348999943,4095,111,661
8.90619089699976,4095,2487,1007
8.908920318999662,4095,1529,1040
8.911648782999691,3952,4095,1601
8.914374955000312,3026,3145,1535
8.917100585000298,2473,4095,4095
8.919828882999354,2128,223,2044
8.92255934700006,1957,732,1040
8.925286851999772,2210,3201,1308
8.928015773999505,2032,911,2614
8.930742446000295,1754,2220,1662
8.933470285001022,1725,2659,1408
8.936199290999866,1792,3582,1454
8.938925630000085,1872,65,2096
8.941654509999353,1925,1094,1086
8.944381348999741,2212,0,427
8.947106813000573,2282,4095,1195
8.949879318999592,1868,1772,880
8.952611615999558,1747,2175,859
8.95535087099961,1780,3632,1185
8.958081501999914,1854,1642,2602
8.960811881999689,1913,1222,1426
8.963540845999887,2110,65,563
8.966266392999387,2293,2211,829
8.968994856999416,1950,1038,560
8.971724320999783,1763,3824,1089
8.974450576999516,1775,3181,1241
8.977178416000243,2166,4095,4095
8.979907128999912,1894,1664,2482
8.98263609300011,1946,667,1264
8.985367556999336,2271,1898,1098
8.988095979000718,2090,455,573
8.990822693000155,1795,1731,622
8.993551699000818,1755,2907,990
8.996282538000742,1806,3419,1253
8.999007585000072,1883,0,2079
9.001737840000715,1926,343,907
9.004468803999771,2213,186,417
9.007231768000565,2259,3882,1004
9.009962231999452,1857,2115,906
9.01268986300056,1744,2188,819
9.015471992999665,1787,3674,1200
9.018228666000141,1857,1659,2614
9.02095950399962,1916,1085,1424
9.02368613500039,2128,0,560
9.026411431999804,2293,2864,983
9.0291405629996,1934,979,613
9.031891610000457,1758,2983,900
9.034624365000127,1765,3341,1221
9.037355413000114,1851,4095,4095
9.040087043000312,1895,1023,2021
9.042825673999687,1983,53,850
9.045555888000308,2277,3943,1322
9.048286017999999,2057,0,507
9.05101381500026,1771,1840,645
9.053741988000183,1751,3184,1023
9.056474451001122,1808,4095,1437
9.05924024900014,1879,108,2103
9.061970504000783,1926,145,885
9.064700717999585,2229,26,368
9.067429099000947,2209,2479,698
9.070154979001018,1840,1408,622
9.072883443001047,1745,1959,753
9.075611739999658,1789,2743,914
9.078340829000808,1859,1484,689
9.081071959999463,1915,1415,637
9.08428346599976,2146,48,247
9.086977304999891,2226,4006,1090
9.089668602000529,1087,1698,1744
9.092359233000025,976,2611,2949
9.095047738001085,1247,4095,2317
9.097738327000116,1573,1232,1221
9.100427707000563,1796,400,609
9.103116504000354,2032,240,294
9.105843676999939,2307,4039,1845
9.108536265001021,2031,368,871
9.111256228999991,1799,1845,786
9.113989359999323,1772,2859,1023
9.116686114999538,1824,4095,1615
9.119374371000958,1889,0,2036
9.122064958999545,1929,384,971
9.124754548000055,2240,1664,816
9.12744722000025,2194,2005,2503
9.13013626800057,1840,1918,1570
9.132827065001038,1747,2109,1194
9.135516778000238,1792,3313,1291
9.138206034000177,1858,1045,2381
9.140895206001005,1914,1363,1371
9.143586960999528,2126,0,544
9.146277383999404,2289,2754,937
9.148966513999767,1938,976,605
9.151654978000806,1765,4042,1060
9.154343232999963,1768,2977,1191
9.157034154999565,1829,4095,4095
9.159724203000223,1893,482,2140
9.162406666000606,1936,363,1035
9.165095505000863,2259,2229,1056
9.167786051999428,2125,749,528
9.170474808001018,1811,2073,710
9.173165021000386,1750,2353,915
9.175854110000728,1798,3412,1199
9.178542616000414,1872,607,2239
9.181232578999698,1920,1641,1391
9.18392279299951,2166,496,659
9.186610090000613,2287,3696,1215
9.189296095999453,1904,1456,831
9.19198251799935,1756,2466,944
9.194669815000452,1775,3882,1293
9.197357111999736,1843,4095,3280
9.200046284000564,1890,368,1584
9.20273187299972,1985,681,784
9.205431669999598,2275,4095,1425
9.208120092000172,2064,208,1787
9.210807847999604,1797,1507,1113
9.21350206200077,1754,2532,1104
9.216188566999335,1808,2927,1210
9.218873196999994,1872,0,455
9.22156149500006,1920,737,315
9.224248708000232,2203,129,176
9.226934588999939,2379,4095,4095
9.229624386000069,1873,1682,2256
9.23231339099948,1751,2227,1517
9.234999854999842,1776,3693,1473
9.237688860999697,1847,2480,2879
9.240380323999489,1904,1058,1533
9.243068412999492,2053,400,706
9.245758209999622,2283,2864,942
9.248445507000724,2011,394,457
9.251129845999458,1781,2157,706
9.253851518000374,1759,2844,989
9.256543815999976,1814,4095,1456
9.259233779001079,1882,0,2058
9.261919284999749,1927,94,894
9.264614374000303,2233,215,439
9.267320171000392,2210,2470,719
9.270017800999995,1775,1840,731
9.272709848000886,1408,2147,816
9.275402187000509,1567,3611,1127
9.278090193000025,2457,1680,2653
9.280779531000007,4095,1290,1558
9.283467662000476,4095,44,639
9.286196667000695,4095,2191,926
9.288887255999725,4095,1310,752
9.29157809500066,3443,4095,1278
9.294266184000662,2736,2943,1186
9.296955523001088,2380,4095,4095
9.29964219500107,2031,0,1975
9.302330700000311,1919,535,948
9.305021538999426,2196,1667,931
9.307710211000085,2069,878,511
9.31039679999958,1779,2627,864
9.313086264000958,1734,2052,854
9.315773726999396,1791,3203,1144
9.3184581910009,1870,106,1714
9.321147655000459,1920,1017,971
9.323833660000673,2165,32,372
9.326519665999513,2288,3988,1168
9.329207587999917,1922,769,1344
9.331896260000576,1763,2768,1230
9.334645307000756,1775,3198,1261
9.33738314599941,1840,4095,3294
9.340090818001045,1902,767,1653
9.34280869900067,2003,538,796
9.345609412999693,2276,4095,1193
9.34852983500059,2042,0,443
9.35166930000014,1781,2144,704
9.35453188900101,1770,3090,1023
9.35733943699961,1928,4095,4095
9.360137233999922,1902,391,1923
9.362885323000228,2000,591,948
9.365575662000992,2281,4095,1291
9.368261625000741,2038,151,569
9.370945589000257,1785,1711,640
9.373630303000027,1758,3055,998
9.376324349999777,1810,3518,1248
9.379013939000288,1883,94,487
9.381703360999381,1927,325,247
9.384390658000484,2215,309,202
9.387078539000868,2244,3950,960
9.389767501999813,1859,1593,748
9.392466216000685,1755,1996,817
9.395180679999612,1787,3241,1119
9.397870602000694,1855,793,589
9.400560816000507,1911,1118,538
9.403249905000848,2092,10,215
9.405935701999624,2279,2112,643
9.408621332000621,1984,311,335
9.411307963000581,1776,2619,982
9.413995717999569,1773,3149,1163
9.416684432000693,1822,4095,1648
9.41937214599966,1893,1190,2379
9.422058817999641,1934,39,1023
9.424749157000406,2231,432,587
9.427439162000155,2172,1895,619
9.430126417999418,1833,1845,679
9.432817881001029,1749,2167,809
9.435508762000609,1790,3044,1072
9.438195766999343,1855,969,2359
9.440886063999642,1904,1229,1347
9.44357977800064,2127,48,536
9.446272617000432,2290,2922,1008
9.448967038999399,1935,598,535
9.45165725300103,1769,2877,884
9.454344466999828,1770,2651,1008
9.457031889000064,1829,4095,1425
9.45972156100106,1890,790,773
9.462409775000197,1936,142,327
9.465116364001005,2280,2305,764
9.467838451999341,1781,1484,1104
9.470558332999644,1143,2310,1007
9.47326629700001,1172,2320,2761
9.475955677000456,1426,3513,2103
9.478642599000523,1689,413,2180
9.481331021001097,1856,1404,1239
9.484020277001036,2182,221,538
9.486752699000135,2299,4095,1342
9.489446330000646,1918,1183,835
9.492137667999486,1774,2276,785
9.49482609000006,1789,3314,1153
9.497515179000402,1850,2133,910
9.500204893000046,1904,1265,659
9.502890940000725,2030,271,324
9.505581612000242,2273,3008,896
9.508269701000245,2027,0,457
9.5109613730001,1786,1710,597
9.513655628999913,1759,2876,958
9.51635725900087,1809,4095,1580
9.519046180999794,1883,297,2224
9.52173389500058,1926,1789,1347
9.524422192000202,2218,24,531
9.527109823000501,2231,3323,942
9.529837411999324,1856,1678,752
9.53252941699975,1760,2172,832
9.535244589000285,1786,3414,1157
9.537935260999802,1856,1958,2685
9.54062635000082,1906,803,1386
9.543317564000972,2098,35,576
9.546008278000954,2285,2159,814
9.548698908000006,1970,559,448
9.551387789000728,1775,4093,1162
9.55407600199942,1767,3462,1306
9.556766298999719,1825,4095,1734
9.55945534700004,1888,802,2256
9.562142976999894,1934,73,983
9.564832357000341,2243,1525,906
9.567521613000281,2156,1439,659
9.570212034999713,1830,1200,528
9.572901998999441,1758,2181,768
9.575592338000206,1797,4095,1273
9.579138720000628,1863,610,2439
9.58186814200053,1915,3109,1829
9.584560397001042,2229,219,768
9.587251111001024,2202,1973,708
9.58993853299944,1840,2150,789
9.592628956001136,1757,2192,883
9.595317668999996,1792,4095,1249
9.598004340999978,1857,896,2327
9.600692972000616,1910,882,1251
9.603381726999942,2111,253,534
9.606070232999627,2279,2172,786
9.608760072000223,1962,1878,770
9.611448785000903,1773,4095,1318
9.614136374000736,1770,3051,1306
9.616828046000592,2054,4095,4095
9.61952892699992,1888,343,2113
9.62222380700041,1930,753,1107
9.624913313000434,2251,1677,982
9.627602234999358,2132,945,565
9.630297907000568,1821,2111,729
9.632989871000973,1753,2429,879
9.635680417999538,1799,3051,1106
9.638370757000303,1863,650,2263
9.641062720000264,1917,1581,1372
9.643751601000986,2155,119,559
9.646439064999868,2285,4095,1258
9.649127444999976,1889,1595,2058
9.651816284000233,1457,2675,1490
9.65450403900104,1305,3880,1483
9.657192295000641,1861,3787,1455
9.65988230000039,3006,479,747
9.66256993100069,4095,464,411
9.665259478000735,4095,4095,1351
9.667948067000907,4095,85,1326
9.670639239000593,3347,2265,1071
9.673331328000131,2660,3040,1205
9.676020458000494,2225,4095,1607
9.678708797000581,1999,42,2208
9.681404594000924,1905,880,1099
9.684094016000017,2129,35,432
9.686824812999475,2221,4095,1211
9.68951677699988,1845,1378,896
9.69220736600073,1737,2001,859
9.6948955379994,1770,3639,1233
9.697584667999763,1845,2907,2993
9.7002732990004,1904,752,1488
9.702961721000975,2043,70,611
9.70565226799954,2278,3305,1008
9.708341899000516,2018,415,2432
9.71102952900037,1784,2379,1602
9.713719450999633,1762,3040,1437
9.71640749800099,1817,4095,1759
9.719094504000168,1884,116,2115
9.721817634001127,1923,34,890
9.7245070150002,2229,45,382
9.727223604000756,2217,3175,3030
9.729913401000886,1853,1817,1762
9.732601656000043,1753,2245,1329
9.73529132800104,1787,3467,1367
9.737978625000324,1857,1451,2559
9.740668839000136,1923,1228,1430
9.743359010999484,2110,55,576
9.74604784999974,2287,2653,960
9.748735938999744,1966,1013,2309
9.751425735999874,1971,4095,4095
9.754113532999327,1767,3147,2880
9.756804163000197,2127,4095,4095
9.759493085999566,1894,477,2169
9.762181965999844,1931,146,939
9.764872388001095,2256,966,749
9.767562519000421,2144,1296,2447
9.770250315999874,1823,1840,1502
9.77293857100085,1749,2178,1191
9.775630826999986,1792,3084,1239
9.778319123999609,1872,922,2455
9.781007212999612,1919,1684,1475
9.783694842999466,2153,87,606
9.786383515000125,2287,3130,1106
9.789073228999769,1920,1463,773
9.791761151000173,1761,2671,950
9.794450990000769,1771,4095,1347
9.797141204000582,2103,4095,4095
9.799830751000627,1897,848,2066
9.802518131000397,1967,426,990
9.805206844999702,2265,3434,1334
9.807895059000657,2084,81,2089
9.810581898000237,1803,2176,1414
9.81327073600005,1751,3371,1456
9.815960699999778,1801,4052,1557
9.818647747000796,1873,20,2123
9.821335086000545,1920,1584,1248
9.8240227160004,2190,48,511
9.826711597001122,2281,4095,1481
9.829400935999729,1888,1535,1070
9.832088524999563,1757,2352,1516
9.834775613000602,1776,4095,1610
9.83746507700016,1840,3359,3197
9.84015404099955,1901,1168,1767
9.842841212999701,2032,323,821
9.845531093000318,2281,3515,1181
9.848218891000215,1506,43,2054
9.850906563000535,1042,2182,1422
9.853595317999861,1162,3071,1375
9.856282865001049,1443,4095,1650
9.858970078999846,1708,25,2085
9.86166012600006,1869,528,967
9.864349257000868,2224,86,415
9.867036429001018,2265,4095,3309
9.86972472600064,1878,1837,1929
9.872414481000305,1767,2198,1388
9.875102612000774,1788,4095,1600
9.877825326000675,1855,1790,2766
9.880516748000446,1906,1386,1591
9.88323108700024,2096,81,646
9.885921008999503,2293,2384,898
9.889096557000812,1977,929,2291
9.891833104000398,1775,4095,2160
9.894563150999602,1770,4095,2017
9.89730407299976,1936,4095,4095
9.90003374600019,1895,976,2074
9.902758542999436,2005,272,939
9.905486965000819,2281,4095,1427
9.908213845999853,2041,291,2183
9.91093897599967,1790,2583,1582
9.913665357000355,1758,3439,2398
9.91639523699996,1810,4095,4095
9.919121033999545,1885,19,2124
9.92188512299981,1928,91,911
9.92461175400058,2241,636,552
9.927336884000397,2199,2112,2671
