time,y1,y2,y3
0.006038845000148285,1929,3558,3504
0.008785558999079512,2495,4095,4095
0.011517564998939633,2031,4095,3558
0.014250653999624774,2663,4095,4095
0.016979700998490443,1985,4095,4095
0.01970924800116336,1886,2515,3153
0.02243533699947875,2448,4095,4095
0.025161217999993823,2471,4095,4095
0.027910181001061574,2489,4095,4095
0.030637686999398284,1959,4095,3537
0.03341260899833287,2100,2276,3024
0.03614615599872195,1963,1844,2934
0.0388799120009935,2315,4095,4095
0.04160954300095909,2438,4095,4095
0.04433579800024745,2463,4095,4095
0.047061345001566224,2481,4095,4095
0.04979226700015715,2353,4095,4095
0.05252048100010143,2080,4095,3330
0.055248779000976356,2524,4095,4095
0.05797607600106858,2325,4095,4095
0.06070195600113948,2432,4095,4095
0.06343033699886291,2425,4095,4095
0.06615863399929367,1921,4095,4095
0.06888734799940721,2492,4095,4095
0.07161851999990176,2030,4095,3453
0.07435019200056558,2647,4095,4095
0.07707619799839449,2019,4095,4095
0.0798056200001156,1884,3280,3376
0.08253775100092753,2445,4095,4095
0.08526433899896801,1916,3353,3507
0.08803476200046134,2483,4095,4095
0.09076372599884053,1969,4095,3462
0.09349293899867916,2433,2384,3090
0.0962257370010775,1760,2478,3071
0.09895474199947785,1870,4095,4095
0.10168670599887264,2057,4095,4095
0.10441583699866896,2213,4095,4095
0.10714434200053802,2380,4095,4095
0.10987301400018623,2256,4095,4095
0.11259960299867089,2079,4095,4095
0.11532877499848837,2006,3996,3764
0.11806048899961752,2320,4095,4095
0.12078570299854618,2442,4095,4095
0.1235129170017899,2448,4095,4095
0.12624096400031704,1920,4095,4095
0.12896471999920323,2491,4095,4095
0.13169135000134702,2033,4095,3376
0.13442318899979,2640,4095,4095
0.13715386100011528,2026,4095,4095
0.13988257500022883,1877,3937,3530
0.14261120599985588,2445,4095,4095
0.14538279499902274,1911,2150,2673
0.14811479999843868,2481,4095,4095
0.15084863900119672,1968,4095,3371
0.15357860299991444,2096,2866,3318
0.156304567000916,1947,2926,3190
0.15903261399944313,2305,4095,4095
0.16176128599909134,2432,4095,4095
0.1644972920003056,2457,4095,4095
0.1672380060008436,2477,4095,4095
0.16998334500021883,2032,4095,4095
0.1727198500011582,2077,4095,4095
0.17545206399881863,1985,2353,2780
0.1787211959999695,2305,4095,4095
0.18141982599991024,2429,4095,4095
0.1841193319996819,2451,4095,4095
0.1868076700011443,2451,4095,4095
0.1894988009989902,2415,4095,4095
0.19218872300189105,2064,3693,3092
0.1948768949987425,2590,4095,4095
0.19757010900138994,2253,4095,4095
0.20026186399991275,2102,4095,4095
0.2029507859988371,2413,4095,4095
0.20563933399898815,1915,1018,2750
0.2083262560008734,2481,4095,4095
0.2110140529985074,1953,3471,3261
0.21370993299933616,2016,4095,4095
0.21641398000065237,1935,3776,3390
0.21910402800131124,2273,4095,4095
0.22179261600103928,2358,4095,4095
0.22448074700150755,2480,4095,4095
0.22717012700013584,2389,4095,4095
0.2298649660006049,1936,4095,3371
0.23255505500128493,2001,3647,2614
0.23524622699915199,1958,3472,3088
0.23793744100112235,2255,4095,4095
0.24062557100114645,2270,4095,4095
0.2433158679996268,2288,4095,4095
0.2460039149991644,1930,2352,3081
0.248692088000098,2471,4095,4095
0.25138055099887424,1951,2937,2901
0.2540696399992157,2551,4095,4095
0.2567566869984148,1933,4095,3629
0.2594524839987571,2458,4095,4095
0.2621430729996064,2442,4095,4095
0.26483428700157674,2482,4095,4095
0.2675232510009664,2433,4095,4095
0.27021300599881215,1938,2960,3146
0.2729010119983286,2402,4095,4095
0.2755883499994525,1699,380,2409
0.27827852300106315,1234,4095,4095
0.2809710699984862,707,4095,4095
0.28366407499925117,506,4095,4095
0.28635699699952966,61,4095,4095
0.28904512799999793,762,4095,4095
0.29173105000154465,695,3266,3088
0.2944222219994117,2000,4095,4095
0.2971094770000491,1855,4095,4095
0.2997994409997773,1931,3921,3526
0.30249223799910396,2545,4095,4095
0.30517974399845116,1987,3597,3536
0.3078667490008229,2531,4095,4095
0.3105549210013123,1974,4095,3418
0.3132422599992424,2101,2339,2973
0.31597580699963146,1956,1477,2800
0.31867193799917004,2277,4095,4095
0.32136469300166937,2421,4095,4095
0.32405503200061503,2446,4095,4095
0.32674766299896874,2449,4095,4095
0.32943762600189075,2448,4095,4095
0.33212729799925,2059,3907,3146
0.3348169710006914,2606,4095,4095
0.3375080590012658,2274,4095,4095
0.34019756500129006,2087,4095,4095
0.3428871540018008,2436,4095,4095
0.34557678399869474,1906,973,2739
0.348264789001405,2474,4095,4095
0.350954086999991,1990,4095,3425
0.35364492499866174,2096,4095,4095
0.3563438060009503,1936,3670,3378
0.35903577000135556,2279,4095,4095
0.3617249829985667,2421,4095,4095
0.3644148220009811,2445,4095,4095
0.3671034530016186,2469,4095,4095
0.3697991250010091,2262,4095,4095
0.37248625500069465,2078,4095,3343
0.3751744270011841,2325,4095,3967
0.37786601599873393,2305,4095,4095
0.38059314700149116,2416,4095,4095
0.38328777700007777,2434,4095,4095
0.38597740800105385,1904,4095,3705
0.3886674960012897,2478,4095,4095
0.39135758499833173,2021,4095,3515
0.3940539239993086,2672,4095,4095
0.3967430129996501,1920,4095,3982
0.39943122700060485,1867,2651,3042
0.40212435699868365,2414,4095,4095
0.40481232100137277,2448,4095,4095
0.40750141000171425,2466,4095,4095
0.41019549799966626,1931,4095,3516
0.412885378998908,2639,4095,4095
0.415575467999588,1977,282,2426
0.4182638060010504,2311,4095,4095
0.4209550619998481,2414,4095,4095
0.42364902600093046,2437,4095,4095
0.42633982299958006,2276,4095,4095
0.4290271620011481,2480,4095,4095
0.43171695899945917,2039,3931,3221
0.43440679800187354,2642,4095,4095
0.4370933860009245,2139,4095,4095
0.43978339200111805,1863,4039,3563
0.4424718970003596,2423,4095,4095
0.44516040300004533,1897,3115,2878
0.44784907500070403,2471,4095,4095
0.4505390800004534,1957,4095,3437
0.45323121099863783,2096,2295,2960
0.4559661329985829,1961,1711,2894
0.4586597220004478,2279,4095,4095
0.4613521020000917,2414,4095,4095
0.46404073300072923,2439,4095,4095
0.46673069600001327,2461,4095,4095
0.46942161900005885,2432,4095,4095
0.4721092489999137,2368,3893,3241
0.4748010039984365,3303,4095,4095
0.47748996800146415,2639,4095,4095
0.48017759900176316,2227,4095,4095
0.4828689790010685,2523,4095,4095
0.4855613600011566,1925,745,2679
0.4882504900015192,2467,4095,4095
0.49094103700190317,1979,3583,3328
0.49362904300141963,2083,4095,4095
0.4963176310011477,1929,4095,3569
0.49900767900180654,2291,4095,4095
0.5016952260011749,2416,4095,4095
0.504384438998386,2441,4095,4095
0.5070760700000392,2466,4095,4095
0.5097654089986463,2245,4095,4095
0.5124551219996647,2077,4095,3306
0.5151456700004928,2254,4095,3921
0.51783717500075,2309,4095,4095
0.5205276810011128,2351,4095,4095
0.5232183939988317,2346,4095,4095
0.5259093579988985,1904,3433,3370
0.5285988219984574,2477,4095,4095
0.5312873690018023,2011,3645,3183
0.5339774579988443,2669,4095,4095
0.536665838000772,1917,4095,3558
0.5393547189996752,1863,3183,3097
0.5420429320001858,2423,4095,4095
0.5447298959988984,2448,4095,4095
0.547419610000361,2467,4095,4095
0.5501132819990744,1922,3444,3223
0.5528054130008968,2583,4095,4095
0.5554984599984891,1970,335,2409
0.558190048999677,2181,4095,4095
0.5608789290017739,2379,4095,4095
0.5635687680005503,2438,4095,4095
0.5662597730006382,1905,4095,3799
0.5689480699984415,2475,4095,4095
0.5716388680011733,1983,2603,2797
0.5743282059993362,2559,4095,4095
0.5770150870012003,1933,4095,4095
0.5797043009988556,1891,2613,3111
0.5823974730010377,2269,4095,4095
0.5850889360008296,2288,4095,4095
0.5877810249985487,2367,4095,4095
0.5904698640006245,1926,2231,2881
0.5931579940006486,2016,2477,2928
0.5958600830017531,1936,1186,2705
0.5986062140000286,2139,4095,4095
0.6013382189994445,2302,4095,4095
0.6040315999998711,2469,4095,4095
0.606725354999071,1927,4095,3741
0.609417735999159,1930,4095,3392
0.6121094910013198,1981,2079,2053
0.6148014130012598,2509,4095,4095
0.617493043999275,1918,4095,4095
0.6201813830011815,1910,4095,4095
0.6228738880017772,2027,4095,4095
0.6255641019997711,1922,179,2474
0.6282518990010431,2349,4095,4095
0.6309405710017018,1939,1934,2736
0.6336301599985745,2000,4095,4095
0.6363225819986837,1931,2976,3187
0.6390137540001888,2015,4095,4095
0.6417052180004248,2330,4095,4095
0.6443968899984611,2469,4095,4095
0.64708910400077,2249,4095,4095
0.6497793179987639,1936,3479,3251
0.6524672810010088,3216,2658,2416
0.6551582870015409,4095,4095,3845
0.6578495009998733,4095,4095,4095
0.6605415890007862,3618,4095,4095
0.6632330530010222,3009,4095,4095
0.6659241000015754,2075,2399,3111
0.6686128979999921,2448,4095,4095
0.6713024029995722,1914,2853,2950
0.673992782998539,2523,4095,4095
0.6766837889990711,1876,4095,3648
0.6793762939996668,2187,4095,3925
0.6820675080016372,2430,4095,4095
0.6847565140014922,2451,4095,4095
0.687451018999127,2469,4095,4095
0.6901411910002935,1932,3452,3245
0.6928306549998524,2604,4095,4095
0.6955227020007442,1968,451,2469
0.6982123330017203,2291,4095,4095
0.7009023800019349,2422,4095,4095
0.7035947180011135,2437,4095,4095
0.7062867239983461,1918,4095,4095
0.7089776879984129,2473,4095,4095
0.7116715679985646,2029,3205,3007
0.7143616989997099,2619,4095,4095
0.7170515370016801,2217,4095,4095
0.7197424180012604,1872,3526,3478
0.7224327980002272,2427,4095,4095
0.7251232620001247,2091,4095,3757
0.7278118089998316,2465,4095,4095
0.7305014400008076,1950,3438,3268
0.7331932790002611,2093,2621,3063
0.7358847010000318,1964,2100,2992
0.7385754140013887,2326,4095,4095
0.7412640030015609,2416,4095,4095
0.7439902170008281,2438,4095,4095
0.7466795559994353,2405,4095,4095
0.7493715609998617,2426,4095,4095
0.7520604419987649,2059,3456,2999
0.7547501139997621,2598,4095,4095
0.757440035999025,2331,4095,4095
0.7601288330006355,2019,4095,4095
0.7628192550000676,2423,4095,4095
0.7655092610002612,1915,589,2642
0.7681979750013852,2473,4095,4095
0.7708877299992309,1983,3216,3227
0.7735809440018784,2097,4095,4095
0.7762725329994282,1947,4095,3507
0.7789639129987336,2304,4095,4095
0.7816859189988463,2416,4095,4095
0.7843772990017897,2439,4095,4095
0.7870684709996567,2463,4095,4095
0.789756310001394,1934,4095,4095
0.7924476070002129,2073,4095,3054
0.7951416959986091,2006,3774,3686
0.7978329100005794,2357,4095,4095
0.8005222069987212,2395,4095,4095
0.8032133790002263,2442,4095,4095
0.8059052589997009,1915,3407,3410
0.8085940560013114,2479,4095,4095
0.8112852289996226,2016,4057,3311
0.8139762760001759,2653,4095,4095
0.8166633639993961,1922,4095,4095
0.8193525370006682,2242,4095,3839
0.8220448339998256,2416,4095,4095
0.8247332140017534,2442,4095,4095
0.8274228859991126,2464,4095,4095
0.8301144329998351,1922,4095,3365
0.832801731001382,2661,4095,4095
0.8354905279993545,1385,336,2451
0.8381815329994424,1315,4095,4095
0.8408766639986425,1574,4095,4095
0.8435670440012473,1904,4095,4095
0.8462561330015888,1773,4095,4095
0.8489433050017396,2395,4095,4095
0.8516324349984643,2041,3393,3121
0.8543200659987633,2677,4095,4095
0.8570079050005006,2277,4095,4095
0.8596956180008419,1901,3277,3437
0.8623839989995759,2441,4095,4095
0.8650717540003825,2266,4095,3995
0.8677610929989896,2470,4095,4095
0.8704588489999878,1946,3504,3344
0.8731496869986586,2097,2720,3045
0.8758411509988946,1968,1789,2931
0.8785297399990668,2308,4095,4095
0.8812428290002572,2416,4095,4095
0.8839911260001827,2438,4095,4095
0.8866810479994456,2423,4095,4095
0.8893711370001256,2455,4095,4095
0.8920591419991979,2064,3852,3095
0.8947483980009565,2559,4095,4095
0.8974401529994793,2307,4095,4095
0.9001299500014284,2180,4095,4095
0.9028184980015794,2433,4095,4095
0.9055091279988119,1909,679,2679
0.9081965920013317,2473,4095,4095
0.9108852639983525,1985,3559,3373
0.9135744779996458,2100,4095,4095
0.9162626079996699,1951,4048,3479
0.9189514050012804,2294,4095,4095
0.9216396609990625,2421,4095,4095
0.924327248998452,2447,4095,4095
0.9270177129983495,2467,4095,4095
0.9297112189997279,2189,4095,4095
0.9324009740012116,2073,4095,3024
0.9350929799984442,2225,4095,3967
0.9377823600007105,2352,4095,4095
0.940470991001348,2384,4095,4095
0.9431610790015839,2432,4095,4095
0.9458507929994084,1913,3257,3355
0.9485403819999192,2474,4095,4095
0.9512282620016776,2015,4095,3373
0.9539169759991637,2669,4095,4095
0.9566055649993359,1936,4095,4095
0.9593020290012646,2325,4095,4095
0.9619942009994702,2425,4095,4095
0.9646846649993677,2448,4095,4095
0.9673756279989902,2469,4095,4095
0.9700655090018699,1936,4095,3376
0.9727540979984042,2661,4095,4095
0.9754432699992321,1991,477,2479
0.9781311090009694,2351,4095,4095
0.980817947001924,2419,4095,4095
0.9835427450016141,2438,4095,4095
0.9862330420000944,1918,4095,4095
0.9889225059996534,2480,4095,4095
0.9916130530000373,2039,3504,3135
0.9943010579991096,2647,4095,4095
0.9969889390013122,2274,4095,4095
0.999676860999898,1873,3393,3442
1.0024123660004989,2431,4095,4095
1.0051292880016263,2274,4095,4014
1.007823293999536,2474,4095,4095
1.0105155909986934,1958,3558,3311
1.0132040550015518,2090,2386,3088
1.015895101998467,1967,2321,3090
1.018585648998851,2323,4095,4095
1.021302070999809,2447,4095,4095
1.0239955770011875,2711,4095,4095
1.026690332000726,3163,4095,4095
1.0293818380014272,3317,4095,4095
1.0320703850011341,3030,3618,3111
1.034761390001222,3826,4095,4095
1.0374518120006542,3151,4095,4095
1.0401399010006571,2447,4095,4095
1.0428294480007025,2549,4095,4095
1.0455197449991829,1921,802,2704
1.0482091260018933,2448,4095,4095
1.0508985900014522,1964,3610,3358
1.0535878029986634,2081,4095,4095
1.056277849998878,1936,4095,3597
1.0589683559992409,2302,4095,4095
1.0616572780018032,2421,4095,4095
1.0643474079988664,2450,4095,4095
1.0670392889987852,2473,4095,4095
1.0697318359998462,2046,4095,4095
1.0724215500013088,2077,4095,4095
1.0751138050000009,2014,3667,3630
1.0778022689992213,2359,4095,4095
1.0804906080011278,2395,4095,4095
1.083179029999883,2438,4095,4095
1.0858690770000976,1917,3475,3447
1.088578333001351,2475,4095,4095
1.0912914209984592,2018,4095,3360
1.0939893020004092,2665,4095,4095
1.0966800159985723,1935,4095,4095
1.0993710629991256,1882,3430,3801
1.1020598180002708,2430,4095,4095
1.104748115001712,2455,4095,4095
1.1074389960012923,2474,4095,4095
1.110130750999815,1936,4019,3379
1.1128209230009816,2667,4095,4095
1.1155105120014923,1991,257,2486
1.1182087259985565,2338,4095,4095
1.1209017729997868,2420,4095,4095
1.1235962370010384,2457,4095,4095
1.1262888259989268,2177,4095,4095
1.128978497999924,2480,4095,4095
1.131668002999504,2043,3514,3090
1.1343582590016013,2640,4095,4095
1.1370464309984527,2256,4095,4095
1.1397374359985406,1883,4095,3669
1.1424278170015896,2431,4095,4095
1.1451171970002179,1907,3037,2928
1.1478081189998193,2475,4095,4095
1.150496917001874,1965,3626,3303
1.1531878390014754,2097,2487,3082
1.155879426998581,1970,2166,3035
1.1585697250011435,2320,4095,4095
1.161258521999116,2421,4095,4095
1.1639895689986588,2448,4095,4095
1.166681990998768,2437,4095,4095
1.1693732050007384,2433,4095,4095
1.1720621269996627,2069,3649,3102
1.1747535909998987,2607,4095,4095
1.1774456800012558,2341,4095,4095
1.1801340179990802,2270,4095,4095
1.182824690000416,2437,4095,4095
1.1855575289991975,1915,843,2736
1.1882490349998989,2479,4095,4095
1.1909468740013835,2000,3906,3385
1.193642546000774,2469,4095,4095
1.1963312590014539,1949,4095,3716
1.1990216820013302,2365,4095,4095
1.2017116870010796,2431,4095,4095
1.2044004009985656,2449,4095,4095
1.2070926150008745,2467,4095,4095
1.2097840370006452,1937,4095,4095
1.2124723759989138,2081,4095,4095
1.2151639229996363,1332,2732,2902
1.217855053000676,1203,4095,4095
1.2205466420018638,1451,4095,4095
1.2232372719990963,1824,4095,4095
1.2259290280017012,1634,4095,3574
1.228618324999843,2387,4095,4095
1.231309329999931,2032,4019,3345
1.2339998360002937,2707,4095,4095
1.2366887999996834,2007,4095,4095
1.239389221998863,1908,3115,3163
1.2420849769987399,2445,4095,4095
1.24477539900181,2459,4095,4095
1.2474666550006077,2480,4095,4095
1.2501591600012034,1941,3687,3410
1.2528501660017355,2596,4095,4095
1.255539713001781,1989,391,2553
1.2582293429986748,2352,4095,4095
1.2609172240008775,2423,4095,4095
1.2636071880006057,2448,4095,4095
1.2662995259997842,2256,4095,4095
1.268988324001839,2483,4095,4095
1.2716785369993886,2053,3556,3099
1.274368083999434,2640,4095,4095
1.2770555480019539,2278,4095,4095
1.2797461789996305,1879,4095,3766
1.2824368510009663,2435,4095,4095
1.2851265229983255,1911,2773,2847
1.2878151949989842,2475,4095,4095
1.2905128259990306,1967,3558,3345
1.2932062889994995,2106,2367,3105
1.2958997109999473,1969,2334,3056
1.298594175001199,2336,4095,4095
1.3013213060003181,2432,4095,4095
1.3040139360018657,2452,4095,4095
1.3067032330000075,2455,4095,4095
1.3093951970004127,2421,4095,4095
1.3120841609998024,2069,3894,3062
1.314772958001413,2605,4095,4095
1.3174625470019237,2350,4095,4095
1.3201509270002134,2227,4095,4095
1.3228416829988419,2448,4095,4095
1.3255307719991833,1920,1152,2795
1.3282187770018936,2484,4095,4095
1.3309091160008393,1999,3794,3409
1.3335982050011808,2176,4095,4095
1.3362878350017127,1942,4095,3634
1.3389767990011023,2317,4095,4095
1.3416692630016769,2421,4095,4095
1.3443608509987826,2448,4095,4095
1.3470539400004782,2470,4095,4095
1.3497431959985988,1985,4095,4095
1.352431325998623,2083,4095,4095
1.3551204569994297,2013,2978,2945
1.3578086699999403,2355,4095,4095
1.3604967589999433,2425,4095,4095
1.363184639998508,2445,4095,4095
1.3658728119989973,1921,3856,3546
1.3685630670006503,2482,4095,4095
1.3712527390016476,2030,4095,3343
1.3739436200012278,2675,4095,4095
1.3766321670009347,1949,4095,4095
1.379322756001784,1893,3236,3681
1.382012719001068,2431,4095,4095
1.384700808001071,2454,4095,4095
1.3874255640002957,2479,4095,4095
1.3901197779996437,1939,3941,3391
1.3928112409994355,2643,4095,4095
1.3955013720005809,1994,323,2512
1.3981905860018742,2339,4095,4095
1.4008794239998679,2434,4095,4095
1.4035679709995748,2677,4095,4095
1.4062559769990912,2739,4095,4095
1.4089459819988406,3403,4095,4095
1.411644238000008,2965,3433,3170
1.414336451998679,3906,4095,4095
1.417023206999147,3053,4095,4095
1.4197121709985367,2220,4095,3717
1.4224020930014376,2559,4095,4095
1.4250895149998541,1936,3070,2940
1.427779729001486,2448,4095,4095
1.4304696510007489,1936,3583,3317
1.4331567810004344,2090,2422,3067
1.435846036998555,1957,2160,3039
1.4385351669989177,2336,4095,4095
1.4412281730001268,2426,4095,4095
1.4439596779993735,2449,4095,4095
1.4466526010000962,2443,4095,4095
1.4493664389992773,2425,4095,4095
1.452057695001713,2069,3821,3101
1.4547494090002147,2605,4095,4095
1.4574402469988854,2353,4095,4095
1.460128128001088,2224,4095,4095
1.4628161330001603,2442,4095,4095
1.4655042640006286,1920,1111,2763
1.468190768999193,2482,4095,4095
1.4708814830009942,2000,3649,3383
1.4735734470013995,2188,4095,4095
1.4762621189984202,1951,4095,3583
1.4789533330003906,2336,4095,4095
1.4816420050010493,2431,4095,4095
1.4843308439994871,2455,4095,4095
1.4870191820009495,2473,4095,4095
1.4897210630006157,2002,4095,4095
1.4924112769986095,2082,4095,4095
1.4950998240019544,2010,3248,3054
1.4977880379992712,2377,4095,4095
1.5004772510001203,2410,4095,4095
1.503167131999362,2443,4095,4095
1.5058543459999782,1918,3678,3520
1.5085433089989237,2484,4095,4095
1.5112336899983347,2026,4095,3357
1.5139220700002625,2671,4095,4095
1.5166085339988058,1945,4095,4095
1.5192975399986608,1887,3174,3666
1.5219857119991502,2435,4095,4095
1.5246726340010355,2455,4095,4095
1.527362181001081,2475,4095,4095
1.5300498950018664,1942,4080,3436
1.5327383580006426,2665,4095,4095
1.5354270720017666,1993,336,2448
1.5381174530011776,2353,4095,4095
1.5408065000010538,2427,4095,4095
1.5434972969997034,2447,4095,4095
1.5461889690013777,2064,4095,4095
1.548876182998356,2480,4095,4095
1.5515656470015529,2046,3626,3175
1.5542550690006465,2643,4095,4095
1.556944158000988,2274,4095,4095
1.5596348299986857,1883,3702,3537
1.562327709998499,2432,4095,4095
1.5650192569992214,2107,4095,3755
1.5677188039990142,2480,4095,4095
1.5704053929985093,1965,3760,3361
1.5730922740003734,2099,2655,2999
1.575781236999319,1971,1969,2972
1.5784696599985182,2340,4095,4095
1.5811594980004884,2426,4095,4095
1.583849504000682,2450,4095,4095
1.5865393839994795,2416,4095,4095
1.5893014729990682,2482,4095,4095
1.5919978950005316,2065,3819,3101
1.5946913590014447,2091,4095,4095
1.5973803230008343,1200,4095,4095
1.6000718700015568,1162,4095,4095
1.6027679170001647,1744,4095,4095
1.6054645059994073,1589,835,2705
1.6081545950000873,2362,4095,4095
1.6108474339998793,2001,3680,3375
1.6135367720016802,2134,4095,4095
1.61622331900071,1988,4095,3600
1.6189125749988307,2359,4095,4095
1.621600872000272,2439,4095,4095
1.6242870860005496,2455,4095,4095
1.6269758000016736,2475,4095,4095
1.6296643880014017,2074,4095,4095
1.6323535189985705,2078,4095,4095
1.6350447330005409,2021,3735,3697
1.6377405710009043,2368,4095,4095
1.6404297439985385,2421,4095,4095
1.6431189569993876,2445,4095,4095
1.645808045999729,1921,3415,3447
1.648494468001445,2482,4095,4095
1.651183306999883,2026,4095,3386
1.653870979000203,2667,4095,4095
1.6565574849992117,1936,4095,4095
1.6592452400000184,2159,4095,3777
1.661931620001269,2432,4095,4095
1.664619084000151,2453,4095,4095
1.6673082150009577,2478,4095,4095
1.6699981370002206,1938,4095,3433
1.6726848090002022,2662,4095,4095
1.675371355999232,2000,432,2447
1.6780582370010961,2361,4095,4095
1.6807457419999992,2425,4095,4095
1.6834345390016097,2448,4095,4095
1.6861209609996877,1923,4095,4095
1.688806507998379,2480,4095,4095
1.6914933049993124,2038,3569,3114
1.6941821440013882,2645,4095,4095
1.6968686079999316,2258,4095,4095
1.6995547379992786,1887,3279,3346
1.7022456189988588,2433,4095,4095
1.7049320410005748,2394,4095,4095
1.7076207130012335,2475,4095,4095
1.7103106350004964,1952,3682,3362
1.7129972239999915,2097,3019,3121
1.7156862289994024,1978,1533,2850
1.7183749020005052,2353,4095,4095
1.7210621150006773,2423,4095,4095
1.723750329001632,2448,4095,4095
1.7264399599989702,2377,4095,4095
1.7291270899986557,2481,4095,4095
1.7318162619994837,2064,3600,3090
1.7345038929997827,2624,4095,4095
1.737189605999447,2329,4095,4095
1.7398792790008883,1890,4095,4095
1.742569326001103,2444,4095,4095
1.7452562889993715,1919,555,2473
1.7479837120008597,2479,4095,4095
1.750672049998684,1984,3434,3301
1.7533610979990044,2103,3698,3840
1.7560484360001283,1961,3409,3363
1.7587356080002792,2326,4095,4095
1.7614243640018685,2429,4095,4095
1.7641125779991853,2448,4095,4095
1.7668002909995266,2470,4095,4095
1.7694898800000374,2306,4095,4095
1.772177760998602,2081,4095,3129
1.7748651830006565,2593,4095,4095
1.7775532300001942,2372,4095,4095
1.7802403189998586,2300,4095,4095
1.7829290740010038,2559,4095,4095
1.785619329999463,2284,2207,3120
1.7883064179986832,3255,4095,4095
1.791015757000423,2709,4095,3472
1.793743928999902,3824,4095,4095
1.7964702270000998,2559,4095,3792
1.7991953570017358,2859,4095,4095
1.80192507099855,2600,4095,4095
1.8046508680017723,2489,4095,4095
1.8073765820008703,2459,4095,4095
1.810107003999292,1919,3857,3391
1.8128325100005895,2604,4095,4095
1.8155576819990529,1975,503,2610
1.8182862710018526,2354,4095,4095
1.8210191930011206,2422,4095,4095
1.8237459900010435,2448,4095,4095
1.826476828999148,2383,4095,4095
1.8292067510010384,2491,4095,4095
1.8319683400004578,2067,3760,3135
1.834700346000318,2610,4095,4095
1.8374288929990144,2359,4095,4095
1.8401534399999946,2201,4095,4095
1.8428804460018,2448,4095,4095
1.8456074099995021,1924,1728,2960
1.8483319990009477,2480,4095,4095
1.8510768790001748,2006,4095,3398
1.8538052600015362,2662,4095,4095
1.8565320980014803,1935,4095,4095
1.85926035400189,2294,4095,4081
1.8619886509986827,2426,4095,4095
1.8647145319991978,2448,4095,4095
1.8674439120004536,2475,4095,4095
1.8701705009989382,1936,3566,3344
1.8728972979988612,2527,4095,4095
1.8756251790000533,1985,959,2701
1.8783518509990245,2358,4095,4095
1.8810786899994127,2429,4095,4095
1.8838057790017046,2448,4095,4095
1.8865341179989628,2410,4095,4095
1.889261414999055,2488,4095,4095
1.8920298789998924,2071,3949,3132
1.8947617589983565,2608,4095,4095
1.8974895979990833,2369,4095,4095
1.900215562000085,2268,4095,4095
1.9029432339993946,2445,4095,4095
1.905681115000334,1924,2322,3139
1.9084073289996013,2480,4095,4095
1.9111314590008988,2019,4095,3389
1.913861506000103,2671,4095,4095
1.9165875120015698,1936,4095,4095
1.9193147260011756,1887,3143,3184
1.9220470649997878,2433,4095,4095
1.9247729039998376,2461,4095,4095
1.927502867001749,2478,4095,4095
1.9302339979985845,1947,3695,3383
1.9329600029996072,2234,4043,3889
1.935689175999869,1982,1491,2868
1.9384182649992,2352,4095,4095
1.9411445199984882,2430,4095,4095
1.9438719009995111,2451,4095,4095
1.9466007390001323,2432,4095,4095
1.9493606200012437,2431,4095,4095
1.9520900419993268,2070,3757,3056
1.9548197980002442,2599,4095,4095
1.9575481370011403,2366,4095,4095
1.9602751419988635,2307,4095,4095
1.9630031060005422,2441,4095,4095
1.9657309870017343,1922,2675,3206
1.9684619090003252,2480,4095,4095
1.9711925390001852,2022,4095,3319
1.9739220869996643,2559,4095,4095
1.9766490500005602,865,4095,4095
1.979376097999193,769,2893,3126
1.9821038109985238,1651,4095,4095
1.9848353999987012,2037,4095,4095
1.9875663640013954,2317,4095,4095
1.9908002039992425,1934,3549,3330
1.9934951680006634,2129,3070,3101
1.9961863399985305,1991,4095,3575
1.9988796789984917,2367,4095,4095
2.0015680590004195,2439,4095,4095
2.004295105998608,2459,4095,4095
2.007012695001322,2479,4095,4095
2.009704783999041,1939,4095,3619
2.012393665001582,2081,4095,4095
2.01508467000167,2009,2439,2852
2.017775967000489,2381,4095,4095
2.0204672639993078,2427,4095,4095
2.023156810999353,2447,4095,4095
2.025845774998743,1925,4095,3639
2.028534031000163,2483,4095,4095
2.0312292859998706,2030,4086,3280
2.033919749999768,2665,4095,4095
2.0366064219997497,2061,4095,4095
2.0392965940009162,1888,2871,3153
2.041985141000623,2437,4095,4095
2.0446728550014086,2455,4095,4095
2.047362985998916,2475,4095,4095
2.0500533240010554,1938,3832,3376
2.052744246000657,2651,4095,4095
2.0566486710013123,1988,432,2544
2.059352968000894,2366,4095,4095
2.062054474001343,2436,4095,4095
2.0647426870018535,2459,4095,4095
2.0674315680007567,2479,4095,4095
2.0701217819987505,1946,3754,3335
2.0728092870012915,2551,4095,4095
2.075496708999708,1988,735,2634
2.078185755999584,2352,4095,4095
2.0808753870005603,2426,4095,4095
2.083565266999358,2449,4095,4095
2.086254481000651,2294,4095,4095
2.0889414449993637,2483,4095,4095
2.0916312000008475,2053,3449,3070
2.0943211220001103,2633,4095,4095
2.097031044999312,2318,4095,4095
2.09975813300116,1888,4095,4095
2.102458014000149,2438,4095,4095
2.1051451860003,1917,1249,2535
2.1078388999994786,2479,4095,4095
2.110527071999968,1979,3455,3289
2.1132173689984484,2099,2892,3293
2.115943207998498,1965,2969,3210
2.118637712999771,2341,4095,4095
2.121351219000644,2433,4095,4095
2.1240404330019373,2453,4095,4095
2.1267301049992966,2479,4095,4095
2.129420694000146,2316,4095,4095
2.1321090320016083,2067,4095,3109
2.1347986629989464,2589,4095,4095
2.1374855430003663,2372,4095,4095
2.1401733400016383,2352,4095,4095
2.142862263001007,2445,4095,4095
2.1455520179988525,1923,2047,3089
2.148240647999046,2480,4095,4095
2.1509311119989434,2006,4095,3485
2.1536198260000674,2658,4095,4095
2.156308789999457,1950,4095,3863
2.158999920000497,2422,4095,4095
2.1616895090010075,2461,4095,4095
2.1643768059984723,2726,4095,4095
2.167066062000231,3037,4095,4095
2.169753566999134,2417,4095,3567
2.1724449889989046,3414,4095,4095
2.175159620001068,2759,1857,2682
2.17786470899955,3066,4095,4095
2.1805560469983902,2704,4095,4095
2.1832510940002976,2535,4095,4095
2.18593864200011,1930,4095,4095
2.188625355000113,2462,4095,4095
2.1913589440009673,2011,3775,3184
2.1940519909985596,2631,4095,4095
2.19674503799979,2224,4095,4095
2.199440002001211,1887,3029,3357
2.2021283409994794,2437,4095,4095
2.2048147630011954,2461,4095,4095
2.2075094350002473,2480,4095,4095
2.210197649001202,1953,3562,3346
2.212897362998774,2096,3361,3159
2.2155872020011884,1983,1374,2818
2.2182752070002607,2352,4095,4095
2.2209622129994386,2431,4095,4095
2.2236515100012184,2455,4095,4095
2.2263405150006292,2375,4095,4095
2.2290272710015415,2483,4095,4095
2.2317170679998526,2062,3794,3141
2.2344043650009553,2622,4095,4095
2.2370932869998796,2344,4095,4095
2.239780501000496,1888,4095,4095
2.24247367299904,2441,4095,4095
2.24516317799862,1920,880,2497
2.2478536419985176,2480,4095,4095
2.250543064001249,1984,3458,3310
2.2532301110004482,2102,3312,3504
2.2559579920016404,1966,3202,3283
2.258647872000438,2352,4095,4095
2.2613582109988783,2429,4095,4095
2.2640464670002984,2453,4095,4095
2.2667368889997306,2478,4095,4095
2.2694251030006853,2288,4095,4095
2.2721148999989964,2076,4095,3107
2.274804197000776,2589,4095,4095
2.277494702000695,2379,4095,4095
2.2801847490009095,2342,4095,4095
2.282872338000743,2442,4095,4095
2.2855597189991386,1920,2326,3136
2.2882465990005585,2482,4095,4095
2.290934646000096,2011,4095,3416
2.293623151999782,2674,4095,4095
2.296310865000123,1947,4095,4095
2.2990080380004656,2434,4095,4095
2.301695584999834,2436,4095,4095
2.304382507001719,2457,4095,4095
2.3070700120006222,2479,4095,4095
2.3097561840004346,1939,4095,3606
2.312442023001495,2559,4095,4095
2.3151369449988124,2000,1570,2613
2.317831866999768,2381,4095,4095
2.3205231229985657,2429,4095,4095
2.323213878000388,2448,4095,4095
2.3259011750014906,1925,4095,4095
2.328589306001959,2485,4095,4095
2.3312871029993403,2034,3882,3228
2.3339783170013106,2656,4095,4095
2.3366689889990084,2193,4095,4095
2.3393599939990963,1891,2861,3239
2.342047750000347,2444,4095,4095
2.344733213998552,2463,4095,4095
2.3474207610015583,2482,4095,4095
2.350108474998706,1951,3722,3392
2.3527948970004218,2259,4095,4095
2.3554837349984155,1095,879,2688
2.358172033000301,1116,4095,4095
2.3608582460001344,1432,4095,4095
2.363546292999672,1840,4095,4095
2.3662362569994,2061,4095,4095
2.3689306790001865,2401,4095,4095
2.3716227260010783,2064,3632,3106
2.3743122320011025,2674,4095,4095
2.376998695999646,2381,4095,4095
2.3796876599990355,1906,4095,4095
2.382376165001915,2452,4095,4095
2.3850647949984705,1925,1418,2593
2.3877553009988333,2480,4095,4095
2.390444140000909,1977,3619,3323
2.3931323530014197,2100,2890,3322
2.395820942001592,1970,2749,3173
2.3985143229983805,2368,4095,4095
2.401204620000499,2434,4095,4095
2.403903292000905,2459,4095,4095
2.4065911719990254,2478,4095,4095
2.409305052999116,2400,4095,4095
2.411994682999648,2077,4095,3142
2.414682022001216,2606,4095,4095
2.417369360999146,2382,4095,4095
2.420057449999149,2287,4095,4095
2.422744663999765,2443,4095,4095
2.4254345020017354,1924,1711,2992
2.4281226329985657,2483,4095,4095
2.4308131799989496,2001,4095,3401
2.4335060189987416,2635,4095,4095
2.4361944410011347,1952,4095,3818
2.4388835710014973,2434,4095,4095
2.441572701998666,2436,4095,4095
2.44426062400089,2462,4095,4095
2.4469488380018447,2477,4095,4095
2.4496384679987386,1978,4095,4095
2.452325390000624,2082,4095,4095
2.455014104001748,2011,2333,2800
2.4577019429998472,2394,4095,4095
2.460387740000442,2432,4095,4095
2.4630757449995144,2448,4095,4095
2.465767125999264,1926,4095,3619
2.468457214999944,2482,4095,4095
2.4711457199991855,2027,4047,3339
2.4738344750003307,2659,4095,4095
2.4765211890007777,2064,4095,4095
2.479211320001923,1890,2955,3168
2.4818996169997263,2437,4095,4095
2.4845854970008077,2455,4095,4095
2.487273669001297,2477,4095,4095
2.4899608830019133,1945,4025,3404
2.4926496389998647,2583,4095,4095
2.4953390609989583,1995,317,2549
2.498030482998729,2384,4095,4095
2.5007235299999593,2432,4095,4095
2.5034194940017187,2448,4095,4095
2.5061138739984017,2210,4095,4095
2.508799129998806,2483,4095,4095
2.5114868019991263,2053,3615,3158
2.514175182001054,2640,4095,4095
2.516862354001205,2310,4095,4095
2.519551651999791,1891,4095,3758
2.5222414070012746,2443,4095,4095
2.52492853700096,1921,3200,3003
2.527618750998954,2479,4095,4095
2.530310340000142,1968,3805,3341
2.532998137001414,2099,2394,3109
2.535685933999048,1973,2225,3047
2.5383759399992414,2351,4095,4095
2.541064278000704,2430,4095,4095
2.5437526169989724,2654,4095,4095
2.546443373001239,2908,4095,4095
2.5491303369999514,3158,4095,4095
2.5518187589987065,2835,4016,3200
2.5545099720002327,3653,4095,4095
2.557196435998776,3131,4095,4095
2.559885024998948,2500,4095,4095
2.5625759050017223,2559,4095,4095
2.56526474400016,1942,583,2629
2.567989666000358,2465,4095,4095
2.57068067200089,1972,3583,3314
2.573369551999349,2083,4095,4095
2.5760585159987386,1945,4095,3551
2.578746980001597,2348,4095,4095
2.5814362769997388,2435,4095,4095
2.584123323998938,2460,4095,4095
2.5868139960002736,2478,4095,4095
2.5895077519999177,2139,4095,4095
2.5923108819988556,2080,4095,4095
2.5950511379996897,2165,4095,3875
2.5977877270015597,2389,4095,4095
2.6005547320019105,2430,4095,4095
2.603301654999086,2454,4095,4095
2.6060349100007443,1923,4095,4095
2.6087643319988274,2486,4095,4095
2.611495337998349,2043,3557,3168
2.6142344270010653,2640,4095,4095
2.616959682000015,2311,4095,4095
2.6196886459983943,1889,4095,4095
2.6224179019991425,2441,4095,4095
2.625148115999764,1920,943,2501
2.6278782049994334,2480,4095,4095
2.630606668000837,1985,3757,3323
2.6333928409985674,2112,4095,4095
2.6361227209999925,1957,3954,3518
2.6388519770007406,2365,4095,4095
2.6415783160009596,2439,4095,4095
2.644311280000693,2458,4095,4095
2.6470441599994956,2483,4095,4095
2.649773748998996,1943,4095,3579
2.6525025880000612,2629,4095,4095
2.655232551998779,2000,717,2487
2.6579718489992956,2383,4095,4095
2.660708521001652,2559,4095,4095
2.6634414850013854,2451,4095,4095
2.666171406999638,2262,4095,4095
2.66889687100047,2489,4095,4095
2.6716264599999704,2055,3741,3119
2.674355799001205,2638,4095,4095
2.677082179001445,2333,4095,4095
2.6798083520006912,1891,4095,4095
2.6825363150019257,2442,4095,4095
2.685261446000368,1917,319,2535
2.6880314929985616,2480,4095,4095
2.6907637490003253,2000,3570,3319
2.6935000880002917,2447,4095,4095
2.696231385001738,1965,4095,3757
2.698977931999252,2434,4095,4095
2.701729771000828,2435,4095,4095
2.704463152000244,2462,4095,4095
2.7071929070007172,2478,4095,4095
2.712199251000129,1940,3950,3376
2.714935047999461,2315,4095,4023
2.7176776779997454,2365,4095,4095
2.720405808999203,2432,4095,4095
2.7231361890007975,2448,4095,4095
2.7258671119998326,1923,4095,3858
2.728593575000559,2483,4095,4095
2.731321289000334,2035,3777,3175
2.734049252998375,2433,4095,4095
2.73677513399889,1115,4095,4095
2.739502430998982,764,3787,3538
2.742231020001782,1666,4095,4095
2.744965359001071,1526,3211,3007
2.7476995309989434,2335,4095,4095
2.750428911000199,1964,3679,3347
2.7531588339988957,2128,2674,3221
2.7558897140006593,2000,3019,3248
2.7586192609996942,2365,4095,4095
2.7613766840004246,2448,4095,4095
2.7641057729997556,2459,4095,4095
2.766835070000525,2473,4095,4095
2.7695626169988827,1991,4095,4095
2.772288080999715,2079,4095,4095
2.775016878000315,2009,2628,2865
2.777743842001655,2354,4095,4095
2.7804688889991667,2428,4095,4095
2.783194810999703,2445,4095,4095
2.78592527499859,1927,4095,4095
2.7886515310019604,2481,4095,4095
2.7913795780004875,2041,3638,3191
2.7940926250012126,2640,4095,4095
2.7967857549992914,2283,4095,4095
2.799502510999446,1887,4095,3625
2.8022333920016536,2441,4095,4095
2.8049326889995427,1923,2815,2874
2.8076301110013446,2480,4095,4095
2.810322116001771,1973,3677,3311
2.813009454999701,2099,2487,3127
2.8157011270013754,1969,2493,3120
2.8183979659988836,2333,4095,4095
2.821092555001087,2429,4095,4095
2.8237873520010908,2453,4095,4095
2.8264835240006505,2455,4095,4095
2.829174613001669,2416,4095,4095
2.831869117999304,2070,3889,3086
2.8345645400004287,2599,4095,4095
2.8372560040006647,2352,4095,4095
2.839981175999128,2285,4095,4095
2.842677515000105,2448,4095,4095
2.8453748540014203,1923,1670,2949
2.848070068001107,2482,4095,4095
2.8507673230014916,2004,3619,3287
2.853463744999317,2559,4095,4095
2.856155667999701,1952,4095,3674
2.8588516730014817,2442,4095,4095
2.861548262000724,2446,4095,4095
2.864240475999395,2461,4095,4095
2.86693531399942,2480,4095,4095
2.8696345280004607,1943,4095,3557
2.8723259090002102,2465,4095,4095
2.8750206639997486,1999,1860,2690
2.877717086001212,2375,4095,4095
2.8804088830002,2418,4095,4095
2.883104764001473,2434,4095,4095
2.8857992279990867,1917,4095,3881
2.8884900660013955,2479,4095,4095
2.8911859469990304,2023,3715,3221
2.8938775360002182,2656,4095,4095
2.8965685830007715,2128,4095,4095
2.899264087998745,1890,2889,3277
2.901954051998473,2439,4095,4095
2.9046576410000853,2459,4095,4095
2.9073564800019085,2482,4095,4095
2.910048443998676,1952,3619,3355
2.9127350320013647,2098,4095,3987
2.91542962099993,1983,1092,2768
2.9181232929986436,2331,4095,4095
2.9208167149990913,2439,4095,4095
2.923512221001147,2672,4095,4095
2.9262076010018063,2847,4095,4095
2.9288981479985523,3255,4095,4095
2.9315919040018343,2852,3675,3238
2.9342859930002305,3709,4095,4095
2.93697954000163,3120,4095,4095
2.9396755039997515,2192,4095,4095
2.9423692589989514,2559,4095,4095
2.945060222999018,1941,785,2495
2.947753644999466,2463,4095,4095
2.950449274998391,1959,3722,3361
2.9531390730007843,2082,3294,3523
2.955832619998546,1948,3084,3303
2.95852645800187,2331,4095,4095
2.961218172000372,2429,4095,4095
2.9639388440009498,2458,4095,4095
2.966636182998627,2478,4095,4095
2.969356813999184,2288,4095,4095
2.972049235999293,2079,4095,3151
2.974743283000862,2520,4095,4095
2.977437788998941,2367,4095,4095
2.980129710998881,2379,4095,4095
2.982834341000853,2448,4095,4095
2.9855280129995663,1921,2839,3265
2.9882173939986387,2482,4095,4095
2.9909100660006516,2019,3939,3299
2.9936023209993436,2669,4095,4095
2.996293535001314,1941,4095,4095
2.9989889159987797,2383,4095,4095
3.0016823789992486,2431,4095,4095
3.0043920520001848,2459,4095,4095
3.007140639998397,2478,4095,4095
3.0098729790006473,1945,4095,3403
3.012562275998789,2660,4095,4095
3.015247740000632,1990,320,2498
3.01793953699962,2354,4095,4095
3.0206326260013157,2431,4095,4095
3.0233287570008542,2448,4095,4095
3.0260226790014713,2192,4095,4095
3.0287137259983865,2486,4095,4095
3.031408356000611,2047,3748,3142
3.0341044449996843,2630,4095,4095
3.0367979090005974,2285,4095,4095
3.0394932060007704,1891,4095,3905
3.0421862110015354,2443,4095,4095
3.044877299998916,1920,2682,2827
3.047571180999512,2481,4095,4095
3.050266810998437,1969,3789,3325
3.0529566920013167,2093,2501,3125
3.055651864000538,1968,2352,3100
3.058346077999886,2333,4095,4095
3.061037874998874,2432,4095,4095
3.063730421999935,2454,4095,4095
3.066425886001525,2463,4095,4095
3.0691187660013384,2415,4095,4095
3.071813229998952,2069,3853,3088
3.074505902000965,2604,4095,4095
3.0771985739993397,2349,4095,4095
3.079902787998435,2262,4095,4095
3.082598418000998,2442,4095,4095
3.0853157570018084,1920,1262,2838
3.0880096379987663,2480,4095,4095
3.0907017680001445,2003,3693,3344
3.0933956490007404,2523,4095,4095
3.0960869459995592,1942,4095,3702
3.098780493000959,2435,4095,4095
3.101472790000116,2435,4095,4095
3.1041987120006524,2459,4095,4095
3.10721205200025,2480,4095,4095
3.109939766000025,1947,3616,3331
3.1126314380016993,2557,4095,4095
3.115321067998593,1136,573,2583
3.118010324000352,1168,4095,4095
3.120698954000545,1488,4095,4095
3.123388709998835,1882,4095,4095
3.1260791730019264,1988,4095,4095
3.1287707619994762,2416,4095,4095
3.131462351000664,2071,3545,3088
3.134152773000096,2677,4095,4095
3.136841319999803,2322,4095,4095
3.1395309920008003,1910,4095,4095
3.1422194560000207,2451,4095,4095
3.1449113779999607,1925,2256,2750
3.147604549998505,2482,4095,4095
3.1502959310018923,1972,3823,3344
3.1529830200015567,2101,2543,3153
3.1556724420006503,1968,2508,3131
3.1583606140011398,2339,4095,4095
3.1610504939999373,2430,4095,4095
3.1637415410004905,2450,4095,4095
3.166429421999055,2468,4095,4095
3.169117344001279,2409,4095,4095
3.171806098998786,2074,3824,3058
3.174495855000714,2597,4095,4095
3.177183318999596,2347,4095,4095
3.179872032000276,2255,4095,4095
3.1825590379994537,2442,4095,4095
3.1852449600010004,1920,1023,2782
3.1879811319995497,2483,4095,4095
3.1906730129994685,2003,3639,3339
3.193371600998944,2257,4095,4095
3.196067649001634,1950,4095,3583
3.1987604460009607,2434,4095,4095
3.201467285001854,2433,4095,4095
3.204167165000399,2454,4095,4095
3.20686362899869,2480,4095,4095
3.209556801000872,1939,4095,3600
3.2122446399989713,2154,4095,4095
3.2149314369999047,2007,2155,2768
3.217620026000077,2364,4095,4095
3.2203091560004395,2430,4095,4095
3.2229992450011196,2448,4095,4095
3.225690916999156,1921,4095,3705
3.228380421998736,2483,4095,4095
3.23106972000096,2032,3688,3201
3.2337586829999054,2658,4095,4095
3.23644689700086,2009,4095,4095
3.2391362359994673,1890,2815,3148
3.241825324999809,2437,4095,4095
3.2445188720012084,2459,4095,4095
3.2472143769991817,2477,4095,4095
3.2499050080004963,1949,3680,3344
3.252593387998786,2594,4095,4095
3.255282976999297,1986,493,2586
3.257973566000146,2339,4095,4095
3.260663070999726,2431,4095,4095
3.26335099300195,2452,4095,4095
3.2660381239984417,2273,4095,4095
3.2687245039996924,2483,4095,4095
3.2714135099995474,2055,3463,3056
3.274102931998641,2631,4095,4095
3.2767889790011395,2282,4095,4095
3.2794759839998733,1886,4095,3963
3.282162782001251,2437,4095,4095
3.2848494540012325,1919,2583,2839
3.287538126001891,2480,4095,4095
3.290227714998764,1974,3702,3305
3.292916302998492,2101,2446,3104
3.2956113920008647,1970,2310,3087
3.298302439001418,2341,4095,4095
3.300989153001865,2446,4095,4095
3.3036936589996913,2657,4095,4095
3.3063838310008578,2943,4095,4095
3.3090700860011566,3083,4095,4095
3.3117564669992134,2832,3741,3141
3.314442972001416,3613,4095,4095
3.3171277690016723,3056,4095,4095
3.3198157750011887,2515,4095,4095
3.322502405000705,2558,4095,4095
3.325189409999439,1938,802,2707
3.327877540999907,2461,4095,4095
3.3305676710006082,1979,3583,3312
3.3332558430010977,2087,4095,4095
3.3359871819993714,1942,4095,3506
3.3386768130003475,2307,4095,4095
3.341364692998468,2429,4095,4095
3.344051282001601,2458,4095,4095
3.346745162998559,2480,4095,4095
3.349440625999705,1943,4095,4095
3.352132381998672,2085,4095,4095
3.354822970999521,2017,3404,3101
3.3575116009997146,2356,4095,4095
3.3601975230012613,2417,4095,4095
3.36288665399843,2450,4095,4095
3.3655757010019443,1925,3621,3450
3.36826362300053,2491,4095,4095
3.370979711999098,2032,3875,3281
3.3736685090007086,2666,4095,4095
3.376354097999865,1941,4095,4095
3.379042936001497,1897,3310,3155
3.381731983001373,2448,4095,4095
3.3844214890013973,2464,4095,4095
3.3871143690012104,2480,4095,4095
3.389804541999183,1939,3696,3353
3.392491547001555,2657,4095,4095
3.3951872190009453,1968,368,2511
3.3978808079991722,2354,4095,4095
3.4005695630003174,2419,4095,4095
3.4032584019987553,2441,4095,4095
3.405947073999414,2093,4095,4095
3.408638663000602,2483,4095,4095
3.4113253770010488,2058,3409,3047
3.4140207989985356,2642,4095,4095
3.416710179000802,2247,4095,4095
3.419398268000805,1890,4095,3786
3.4220871069992427,2431,4095,4095
3.424775112001953,1919,3421,3031
3.427466285000264,2480,4095,4095
3.4301575399986177,1970,3581,3339
3.432845420000376,2107,2701,3071
3.435536675999174,1973,2006,2966
3.438228348000848,2342,4095,4095
3.4409144790006394,2425,4095,4095
3.443603609001002,2451,4095,4095
3.4463039889997162,2431,4095,4095
3.4489956620018347,2463,4095,4095
3.451687166998454,2069,3766,3089
3.4543764219997684,2608,4095,4095
3.4570655950010405,2324,4095,4095
3.459753932998865,2243,4095,4095
3.4624416059996292,2441,4095,4095
3.4651297780001187,1921,528,2629
3.4678187829995295,2482,4095,4095
3.4705125389991736,1998,3455,3281
3.4732050439997693,2106,4095,4095
3.4758997989993077,1955,3952,3459
3.4785923050003476,2313,4095,4095
3.481309685001179,2432,4095,4095
3.4840046079989406,2456,4095,4095
3.4866954460012494,2479,4095,4095
3.4893843680001737,1970,4095,4095
3.4920728739998594,2082,4095,4095
3.4947670879992074,1391,4095,3818
3.497460926999338,1185,4095,4095
3.500150099000166,1411,4095,4095
3.5028396870002325,1816,4095,4095
3.5055301930005953,1635,3339,3418
3.5082271569990553,2387,4095,4095
3.5109161200016388,2032,3875,3308
3.513601834001747,2709,4095,4095
3.5162872559994867,1974,4095,4095
3.518973427999299,2135,4011,3917
3.5216611420000845,2448,4095,4095
3.524348981001822,2467,4095,4095
3.5270396119994984,2480,4095,4095
3.529732533999777,1947,3713,3355
3.5324198310008796,2661,4095,4095
3.5351083780005865,1991,453,2451
3.537798216999363,2346,4095,4095
3.5404849299993657,2429,4095,4095
3.543172769001103,2450,4095,4095
3.545867732998886,1950,4095,4095
3.548559530001512,2487,4095,4095
3.551250077001896,2045,3423,3039
3.5539419160013495,2645,4095,4095
3.5566298800004006,2227,4095,4095
3.5593193439999595,1885,3982,3568
3.562008599001274,2437,4095,4095
3.564698063000833,2206,4095,3897
3.56738661000054,2480,4095,4095
3.570073989998491,1962,3472,3312
3.5727626209991286,2101,2768,3098
3.5754516679990047,1973,1619,2895
3.5781430899987754,2335,4095,4095
3.5808325959987997,2433,4095,4095
3.58352322599967,2449,4095,4095
3.586212857000646,2401,4095,4095
3.5889109870004177,2485,4095,4095
3.591602783999406,2065,3626,3055
3.594289540000318,2610,4095,4095
3.5969815450007445,2320,4095,4095
3.5996742589995847,2157,4095,4095
3.602364389000286,2451,4095,4095
3.6050531860018964,1920,368,2543
3.6077445250011806,2483,4095,4095
3.610436530998413,1994,3526,3312
3.6131248279998545,2103,4095,3811
3.6158106670009147,1951,3497,3354
3.6184969220012135,2308,4095,4095
3.621182677001343,2435,4095,4095
3.6238717660016846,2457,4095,4095
3.6265606050001225,2478,4095,4095
3.629247109998687,2205,4095,4095
3.6320158660018933,2077,3938,2866
3.6347076220008603,2331,4095,4034
3.6373985440004617,2362,4095,4095
3.6400901320012053,2411,4095,4095
3.6427793049988395,2437,4095,4095
3.6454724770010216,1927,3088,3344
3.6481654820017866,2481,4095,4095
3.6508581130001403,2026,4033,3330
3.6535486600005243,2662,4095,4095
3.656240582000464,1936,4095,4095
3.658947462001379,2290,4095,4027
3.6616534259992477,2433,4095,4095
3.6643446820016834,2461,4095,4095
3.6670372699991276,2481,4095,4095
3.66972698400059,1945,3757,3355
3.672414573000424,2669,4095,4095
3.675102994999179,1989,339,2460
3.6777903760012123,2341,4095,4095
3.680477213998529,2433,4095,4095
3.683165637001366,2637,4095,4095
3.6858536420004384,2323,4095,4095
3.688541980998707,3245,4095,4095
3.6912301949996618,2804,3409,3154
3.6939198250001937,3728,4095,4095
3.696613830001297,2889,4095,4095
3.699307252998551,2209,3906,3611
3.7019954659990617,2559,4095,4095
3.70468301299843,2295,4095,3943
3.707372769000358,2461,4095,4095
3.7100655659996846,1937,3473,3313
3.712752529998397,2086,2996,3120
3.715438784998696,1965,1793,2919
3.718125040999439,2334,4095,4095
3.7208110880019376,2430,4095,4095
3.723497884999233,2453,4095,4095
3.726189932000125,2410,4095,4095
3.7288793959996838,2487,4095,4095
3.7315688179987774,2067,3569,3025
3.7342580320000707,2608,4095,4095
3.7369452040002216,2315,4095,4095
3.7396336259989766,2029,4095,4095
3.742323340000439,2443,4095,4095
3.7450255539988575,1920,384,2494
3.74771651699848,2480,4095,4095
3.750405981001677,1995,3361,3229
3.753095445001236,2096,3683,3739
3.7557853250000335,1961,3392,3333
3.758477955998387,2306,4095,4095
3.761168502998771,2433,4095,4095
3.7638590919996204,2455,4095,4095
3.766548930998397,2480,4095,4095
3.7692360610017204,2131,4095,4095
3.771967399999994,2081,4095,2891
3.7746592389994476,2474,4095,4095
3.777352786000847,2338,4095,4095
3.7800427500005753,2367,4095,4095
3.7827346720005153,2447,4095,4095
3.7854266360009206,1923,2817,3281
3.788118307998957,2481,4095,4095
3.790809521000483,2021,3955,3311
3.793500359999598,2669,4095,4095
3.7961845319987333,1937,4095,4095
3.7988749549986096,2358,4095,4095
3.80157521000001,2438,4095,4095
3.8042647990005207,2459,4095,4095
3.8069550129985146,2473,4095,4095
3.8096589759989,1941,3859,3342
3.812346148999495,2671,4095,4095
3.815034404000471,1997,483,2449
3.81772307600113,2346,4095,4095
3.820409956999356,2427,4095,4095
3.8230988790019182,2449,4095,4095
3.8257892170004197,1923,4095,4095
3.8284737229987513,2486,4095,4095
3.8311632279983314,2047,3365,3047
3.8338561089985888,2645,4095,4095
3.836545031001151,2205,4095,4095
3.8392364530009218,1883,3506,3485
3.841927166999085,2437,4095,4095
3.844615422000061,2439,4095,4095
3.847304928000085,2480,4095,4095
3.849994391999644,1965,3442,3312
3.852685564001149,2107,3345,3159
3.855377361000137,1976,1456,2851
3.8580678250000346,2331,4095,4095
3.86075382999843,2434,4095,4095
3.8634460020002734,2448,4095,4095
3.8661530909994326,2381,4095,4095
3.8688455960000283,2487,4095,4095
3.8715367689983395,2067,3679,3100
3.8742263989988714,2125,4095,4095
3.8769140709991916,1165,4095,4095
3.8796041179994063,1047,4095,4095
3.882293415001186,1759,4095,4095
3.884984421001718,1590,528,2494
3.8876758010010235,2365,4095,4095
3.890365182000096,1989,3228,3202
3.8930538120002893,2137,3570,3620
3.8957429840011173,2000,3227,3319
3.8984319900009723,2351,4095,4095
3.901121912000235,2450,4095,4095
3.9038116260016977,2464,4095,4095
3.906499505999818,2474,4095,4095
3.9091876780003076,2214,4095,4095
3.911880559000565,2070,4095,3031
3.914568814001541,2559,4095,4095
3.9172549030008668,2349,4095,4095
3.919983575000515,2329,4095,4095
3.9226760390010895,2429,4095,4095
3.925416086000041,1920,2544,3198
3.9281461329992453,2480,4095,4095
3.9318003070002305,2030,3888,3309
3.934500562998437,2671,4095,4095
3.937190068001655,2350,4095,4095
3.939880698999332,2292,4095,4095
3.9425701209984254,2445,4095,4095
3.9452570009998453,1923,1894,3030
3.947980049000762,2486,4095,4095
3.950673054001527,2017,3883,3341
3.9533646009986114,2650,4095,4095
3.9560529820009833,1945,4095,3791
3.9587420700008806,2431,4095,4095
3.961432493000757,2436,4095,4095
3.964120165001077,2458,4095,4095
3.9668132119986694,2479,4095,4095
3.9695056339987786,1943,4095,3439
3.9721931390013197,2585,4095,4095
3.9748828529991442,2000,1839,2688
3.977572567000607,2359,4095,4095
3.9802624469994043,2429,4095,4095
3.982954120001523,2447,4095,4095
3.985644417000003,1925,4095,4095
3.988333130000683,2480,4095,4095
3.9910228439985076,2037,3629,3173
3.993712808001874,2654,4095,4095
3.9964014799988945,2064,4095,4095
3.9990930690000823,1883,2786,3230
4.001781741000741,2435,4095,4095
4.004470705000131,2460,4095,4095
4.007160126999224,2478,4095,4095
4.009895631999825,1950,3360,3296
4.0126220130005095,2401,4095,4095
4.015312602001359,1979,1104,2774
4.01799977400151,2337,4095,4095
4.020686904001195,2433,4095,4095
4.023374910000712,2451,4095,4095
4.026063665001857,2348,4095,4095
4.028751795998687,2487,4095,4095
4.031442425999558,2065,3530,3110
4.034132264998334,2619,4095,4095
4.0368210619999445,2304,4095,4095
4.039512109000498,1887,4095,4095
4.0422003230014525,2445,4095,4095
4.044890911998664,1922,963,2517
4.047584250998625,2480,4095,4095
4.050274463999813,1989,3349,3259
4.0529611370002385,2105,3134,3366
4.0556518500015954,1962,2893,3219
4.058341231000668,2320,4095,4095
4.061029610998958,2449,4095,4095
4.063719574998686,2707,4095,4095
4.06640933000017,3055,4095,4095
4.069096544000786,2993,4095,4095
4.0717838410018885,2911,3794,3103
4.074471554999036,3634,4095,4095
4.077160852000816,3066,4095,4095
4.079850316000375,2609,4095,4095
4.082543070999236,2545,4095,4095
4.085231452001608,1935,1685,2945
4.087967791001574,2462,4095,4095
4.0906586710007105,1987,3827,3334
4.09335005200046,2643,4095,4095
4.096038390998729,1935,4095,3765
4.098727478998626,2427,4095,4095
4.101416318000702,2363,4095,4095
4.104104949001339,2451,4095,4095
4.1067943289999675,2477,4095,4095
4.109485376000521,1943,4095,3458
4.11218467299841,2517,4095,4095
4.114893469999515,2000,1760,2674
4.117587976001232,2353,4095,4095
4.120274272998358,2422,4095,4095
4.122962778001238,2455,4095,4095
4.125651409001875,1927,4095,4095
4.128340622999531,2485,4095,4095
4.1310337530012475,2035,3703,3153
4.13372313400032,2654,4095,4095
4.136410889001127,2095,4095,4095
4.13910031100022,1885,2774,3250
4.141789900000731,2437,4095,4095
4.144477114001347,2462,4095,4095
4.147168119001435,2545,4095,4095
4.1498579580002115,1951,3406,3313
4.152547213001526,2448,4095,4095
4.155236468999647,1980,774,2672
4.157927348998783,2343,4095,4095
4.16061414700016,2431,4095,4095
4.163303235000058,2449,4095,4095
4.165992032001668,2327,4095,4095
4.168678621001163,2489,4095,4095
4.1713667520016315,2059,3481,3051
4.174055215000408,2622,4095,4095
4.1767434290013625,2291,4095,4095
4.179436434998934,1887,4095,4095
4.182155857000907,2439,4095,4095
4.1848609459993895,1921,1535,2613
4.187554118001572,2480,4095,4095
4.190243623001152,1984,3150,3217
4.192929503999039,2101,3202,3335
4.195665300998371,1962,2849,3217
4.19835934799994,2314,4095,4095
4.201048186998378,2432,4095,4095
4.203738109001279,2455,4095,4095
4.20642740599942,2479,4095,4095
4.209116078000079,2297,4095,4095
4.21180645899949,2079,3872,2941
4.2145132969999395,2586,4095,4095
4.217209385999013,2342,4095,4095
4.219937724999909,2355,4095,4095
4.222629272000631,2437,4095,4095
4.225341027999093,1924,2459,3184
4.228031742000894,2482,4095,4095
4.230721121999522,2019,4053,3333
4.2334092519995465,2668,4095,4095
4.236098632998619,1941,4095,4095
4.238789137998538,2432,4095,4095
4.241478726999048,2432,4095,4095
4.244168649001949,2459,4095,4095
4.246858988000895,2480,4095,4095
4.24954982700001,1943,4095,3382
4.252238916000351,2663,4095,4095
4.254929712999001,1216,1035,2512
4.257620010001119,1169,4095,4095
4.260307431999536,1471,4095,4095
4.262998979000258,1855,4095,4095
4.265689359999669,1665,4095,4095
4.2683762820015545,2402,4095,4095
4.271065911998448,2064,3412,3062
4.27375479300099,2689,4095,4095
4.276445215000422,2179,4095,4095
4.279134762000467,1907,3136,3362
4.281824309000513,2452,4095,4095
4.28451156400115,2469,4095,4095
4.287227652999718,2480,4095,4095
4.2899178250008845,1957,3463,3304
4.292605122998793,2098,3280,3142
4.29529529499996,1974,1386,2810
4.297984757999075,2333,4095,4095
4.300672681001743,2431,4095,4095
4.303361686001153,2453,4095,4095
4.306049607999739,2368,4095,4095
4.3087391139997635,2486,4095,4095
4.3114318270017975,2064,3479,3030
4.314140291000513,2618,4095,4095
4.316828712999268,2302,4095,4095
4.3195197189998,1889,4095,4095
4.322206474000268,2446,4095,4095
4.324893105000228,1922,672,2469
4.327581067998835,2480,4095,4095
4.330271741000615,1990,3165,3185
4.332973329001106,2105,3451,3507
4.335673418001534,1961,3063,3268
4.3383657570011565,2309,4095,4095
4.341059054000652,2432,4095,4095
4.343751893000444,2455,4095,4095
4.346442147998459,2541,4095,4095
4.34913119599878,2211,4095,4095
4.351820783998846,2077,3863,2847
4.354512081001303,2583,4095,4095
4.357200378999551,2357,4095,4095
4.359892051001225,2330,4095,4095
4.36258526399979,2445,4095,4095
4.365303811999183,1921,2306,3137
4.368006150001747,2484,4095,4095
4.370698655999149,2019,4082,3362
4.373414786001376,2672,4095,4095
4.376127709001594,1935,4095,3871
4.378830589001154,2318,4095,4071
4.381530719998409,2433,4095,4095
4.38421901699985,2459,4095,4095
4.38691439700051,2477,4095,4095
4.389613486000599,1943,3657,3290
4.3923058660002425,2668,4095,4095
4.395001038999908,1991,557,2458
4.397696502001054,2352,4095,4095
4.400387341000169,2430,4095,4095
4.403082180000638,2443,4095,4095
4.405781269000727,1935,4095,4095
4.40847473300164,2486,4095,4095
4.411170612998831,2037,3459,3115
4.413876951999555,2636,4095,4095
4.41657316599958,2255,4095,4095
4.419262087998504,1895,4095,3815
4.421951259999332,2448,4095,4095
4.424637431999145,1959,3860,3678
4.4273270619996765,2485,4095,4095
4.430022734999511,1969,3345,3293
4.4327124480005295,2095,2807,3061
4.435401079001167,1968,1840,2941
4.438100709001446,2287,4095,4095
4.440795006001281,2208,4095,4095
4.443487470001855,2117,4095,4095
4.446177809000801,1981,4095,4095
4.448867147999408,1821,4095,4095
4.451557278000109,1738,3631,3105
4.454246116998547,2559,4095,4095
4.456934497000475,2386,4095,4095
4.45962592000069,2327,4095,4095
4.462314257998514,2517,4095,4095
4.465002346998517,1962,449,2593
4.467692893998901,2498,4095,4095
4.470385566000914,2003,3358,3231
4.473075489000621,2103,4095,4095
4.475766452000244,1953,3619,3370
4.47845558300105,2314,4095,4095
4.481144047000271,2432,4095,4095
4.483833968999534,2457,4095,4095
4.486524015999748,2478,4095,4095
4.489211020998482,1997,4095,4095
4.491940317999251,2085,4095,4095
4.494633281999995,2382,4095,4085
4.497355578998395,2358,4095,4095
4.500048876998335,2395,4095,4095
4.502741632000834,2421,4095,4095
4.505430763001641,1923,3375,3399
4.508118726000248,2481,4095,4095
4.510808857001393,2032,3936,3295
4.513499111999408,2659,4095,4095
4.516191118000279,1938,4095,4095
4.518880831001297,1890,3183,3161
4.52156837900111,2435,4095,4095
4.524254551000922,2459,4095,4095
4.526949555998726,2479,4095,4095
4.529638561998581,1947,3605,3313
4.532329983998352,2665,4095,4095
4.5350226139998995,1990,430,2447
4.537712535999162,2341,4095,4095
4.540401333000773,2429,4095,4095
4.543091756000649,2446,4095,4095
4.54578259399932,1984,4095,4095
4.548470765999809,2483,4095,4095
4.551160022001568,2047,3423,3053
4.553854402001889,2637,4095,4095
4.55654182500075,2179,4095,4095
4.559233330001007,1888,4095,3725
4.56192083499991,2442,4095,4095
4.564609840999765,2178,4095,3834
4.567553846998635,2480,4095,4095
4.570244769001874,1991,3263,3205
4.572932316001243,2101,2985,3309
4.575623446999089,1959,2916,3229
4.578314493999642,2307,4095,4095
4.5810031660003006,2433,4095,4095
4.583691880001425,2455,4095,4095
4.58638196800166,2477,4095,4095
4.589069639998343,2248,4095,4095
4.591759812999953,2079,3782,2891
4.594449860000168,2587,4095,4095
4.597161323999899,2325,4095,4095
4.599891911999293,2332,4095,4095
4.602623959999619,2446,4095,4095
4.605393590001768,1925,2442,3178
4.608123803998751,2480,4095,4095
4.610854517999542,2030,4048,3248
4.613585064998915,2656,4095,4095
4.616319737000595,1936,4095,4095
4.619049242999608,1886,2634,3178
4.621777707001456,2439,4095,4095
4.624503795999772,2463,4095,4095
4.62723359300071,2471,4095,4095
4.629963597999449,1963,3370,3257
4.632690021000599,2097,3282,3105
4.635420234000776,1043,1664,2858
4.638156657001673,1157,4095,4095
4.640883037001913,1563,4095,4095
4.643612792999193,1948,4095,4095
4.6463430900003,2239,4095,4095
4.649070929001027,2256,4095,4095
4.651800308998645,2101,3726,3039
4.654529564999393,2627,4095,4095
4.657255695001368,2359,4095,4095
4.66003420099878,2398,4095,4095
4.662767247999,2419,4095,4095
4.665496670000721,1929,3466,3437
4.668224051001744,2480,4095,4095
4.670952140000736,2032,3686,3184
4.673680062001949,2653,4095,4095
4.676406859001872,2023,4095,4095
4.679133739999088,1883,3168,3389
4.681864786998631,2436,4095,4095
4.684592125999188,2433,4095,4095
4.6873198809989844,2479,4095,4095
4.6900482199998805,1971,3354,3277
4.692778017000819,2103,2720,3121
4.695509272998606,1968,2186,3025
4.698238486998889,2326,4095,4095
4.700964491999912,2431,4095,4095
4.703693290000956,2454,4095,4095
4.706421794999187,2471,4095,4095
4.709149217000231,2091,4095,4095
4.7118783480000275,2082,3966,2901
4.714606812001875,2503,4095,4095
4.717384775998653,2333,4095,4095
4.7201154899994435,2430,4095,4095
4.7228436619989225,2435,4095,4095
4.725582084000052,1922,4095,3621
4.728311923001456,2487,4095,4095
4.731040261998714,2047,3670,3184
4.733771726001578,2643,4095,4095
4.7364989390007395,2061,4095,4095
4.739227527999901,1874,4002,3619
4.741957659000036,2439,4095,4095
4.744682955999451,2041,4016,3728
4.747412337001151,2480,4095,4095
4.750140967000334,1973,3405,3262
4.752865931000997,2123,2590,3165
4.755596062001132,1964,2527,3127
4.75832785899911,2320,4095,4095
4.761056823001127,2431,4095,4095
4.763784995000606,2479,4095,4095
4.766515541999979,2480,4095,4095
4.7692416310019325,1954,4095,4095
4.772009677999449,2090,4095,4095
4.774741309000092,2009,3559,3127
4.777471230998344,2353,4095,4095
4.780196445000911,2429,4095,4095
4.7829244089989515,2446,4095,4095
4.785654748000525,1926,4095,3869
4.788382045000617,2483,4095,4095
4.791111174999969,2055,3465,3115
4.793840221998835,2646,4095,4095
4.79656643600174,2213,4095,4095
4.79926844199872,1883,4095,3891
4.801959322001494,2441,4095,4095
4.80464541100082,1920,3058,2971
4.80733387500004,2480,4095,4095
4.810023005000403,1974,3411,3222
4.812710636000702,2111,2778,3088
4.815399683000578,1968,1937,2973
4.818092230001639,2305,4095,4095
4.820778068999061,2429,4095,4095
4.823466324000037,2689,4095,4095
4.826152787998581,3056,4095,4095
4.828837418001058,3278,4095,4095
4.8315242159987974,2959,3699,3101
4.834213013000408,3703,4095,4095
4.8369015179996495,3084,4095,4095
4.839601106999908,2528,4095,4095
4.842289779000566,2549,4095,4095
4.844976617998327,1931,511,2610
4.847666540001228,2457,4095,4095
4.850354836999031,1973,3309,3238
4.85304671799895,2091,4095,4095
4.855740848001005,1941,3665,3375
4.85843056199883,2311,4095,4095
4.861118150998664,2429,4095,4095
4.863808363999851,2455,4095,4095
4.866496161001123,2480,4095,4095
4.869199500000832,1945,4095,4095
4.871916005999083,2095,4095,4095
4.874608595000609,2285,4095,4003
4.877325892000954,2334,4095,4095
4.880017188999773,2420,4095,4095
4.882708444001764,2421,4095,4095
4.885424700001749,1925,3339,3377
4.888135871999111,2482,4095,4095
4.890834918998735,2038,3964,3213
4.893533174999902,2663,4095,4095
4.896225137999863,1934,4095,4095
4.898918644001242,1879,2887,3138
4.901613232999807,2432,4095,4095
4.904304070998478,2455,4095,4095
4.907000909999624,2480,4095,4095
4.909695581998676,1950,3514,3302
4.9123874210017675,2585,4095,4095
4.915081009999994,1978,375,2544
4.917801224000868,2338,4095,4095
4.92049993800174,2423,4095,4095
4.92319186000168,2447,4095,4095
4.925879949001683,2252,4095,4095
4.928568203999021,2489,4095,4095
4.9312567090019,2072,3470,3059
4.933946173001459,2634,4095,4095
4.936634469999262,2261,4095,4095
4.939325059000112,1888,4095,4095
4.942014148000453,2439,4095,4095
4.944702737000625,1924,2077,2699
4.947391742000036,2483,4095,4095
4.95008358099949,1979,3312,3235
4.952777377999155,2112,2541,3125
4.955469884000195,1968,2357,3086
4.958159721998527,2330,4095,4095
4.9608483529991645,2425,4095,4095
4.963537982999696,2446,4095,4095
4.966226739001286,2446,4095,4095
4.9689140359987505,2226,4095,4095
4.9716042910004035,2080,3762,3047
4.97429342200121,2593,4095,4095
4.976981511001213,2315,4095,4095
4.979671307999524,2304,4095,4095
4.982363104998512,2441,4095,4095
4.985053276999679,1923,996,2759
4.987743074001628,2480,4095,4095
4.990433455001039,2014,3515,3266
4.993121751998842,2114,4095,4095
4.99580934000187,1949,4095,3529
4.998497429001873,2429,4095,4095
5.001184851000289,2435,4095,4095
5.0038749820014345,2458,4095,4095
5.006564987001184,2479,4095,4095
5.009254493001208,1945,4095,3583
5.012026789998345,2096,4095,4095
5.0147474619989225,1299,2880,2970
5.017439676001231,1230,4095,4095
5.020131805998972,1507,4095,4095
5.02282072899834,1863,4095,4095
5.0255087340010505,1667,4095,3788
5.028195948001667,2411,4095,4095
5.030884370000422,2058,3799,3169
5.033573791999515,2705,4095,4095
5.036261506000301,2006,4095,4095
5.0389509279993945,1904,2669,3231
5.041640016999736,2442,4095,4095
5.044330021999485,2462,4095,4095
5.047022153001308,2483,4095,4095
5.049712700001692,1953,3460,3315
5.052400996999495,2618,4095,4095
5.055090501999075,1975,427,2588
5.057780258001003,2329,4095,4095
5.06046901299851,2423,4095,4095
5.063159769000777,2450,4095,4095
5.065850148999743,2247,4095,4095
5.068538737999916,2487,4095,4095
5.0712283680004475,2066,3375,3056
5.073918374000641,2630,4095,4095
5.076603546000115,2274,4095,4095
5.079464177000773,1879,4095,4095
5.08218614100042,2447,4095,4095
5.08490602099846,1916,332,2480
5.087620777001575,2487,4095,4095
5.090322031999676,2000,3183,3146
5.093016413000441,2111,4095,4095
5.09571229300127,1947,3643,3375
5.098407090001274,2325,4095,4095
5.1011001789993315,2434,4095,4095
5.103795809001895,2457,4095,4095
5.106489772999339,2481,4095,4095
5.109186112000316,1942,4095,4095
5.11188465899977,2094,4095,4095
5.1145818309996685,2290,4095,3989
5.117318044998683,2351,4095,4095
5.120041801001207,2441,4095,4095
5.1228082650013675,2415,4095,4095
5.125515395000548,1919,4095,3675
5.128206984001736,2491,4095,4095
5.130896072998439,2039,3762,3131
5.1335900369995215,2672,4095,4095
5.136284208998404,2035,4095,4095
5.138981339001475,1877,2988,3287
5.141679677999491,2436,4095,4095
5.144373016999452,2463,4095,4095
5.147068564001529,2478,4095,4095
5.149763110999629,1954,3458,3267
5.152457700001833,2515,4095,4095
5.155152830000588,1973,932,2683
5.157850210998731,2299,4095,4095
5.160537965999538,2426,4095,4095
5.163233972001763,2449,4095,4095
5.165930685001513,2326,4095,4095
5.168623983001453,2489,4095,4095
5.171321820998855,2069,3451,3056
5.174024077001377,2631,4095,4095
5.176718998998695,2296,4095,4095
5.179415504000644,1950,4095,4095
5.1821164680004586,2439,4095,4095
5.1848111399995105,1913,735,2457
5.1875062709987105,2484,4095,4095
5.190205651000724,1993,3215,3211
5.192900365000241,2109,3229,3393
5.1955956620004144,1744,3109,3217
5.198328000999027,1223,4095,4095
5.201031132000935,511,4095,4095
5.203727512001933,461,4095,4095
5.206422018000012,466,4095,4095
5.209113106000586,0,4095,4095
5.211808111998835,651,4095,3091
5.214503366998542,1755,4095,4095
5.217195539000386,2087,4095,4095
5.219889503001468,2403,4095,4095
5.222613091998937,2487,4095,4095
5.225341888999537,1990,2987,3274
5.228062520000094,2547,4095,4095
5.230771900001855,2064,3848,3274
5.233465072000399,2691,4095,4095
5.236155536000297,1925,4095,4095
5.238846958000067,1872,2924,3135
5.2415387549990555,2428,4095,4095
5.2442274690001796,2453,4095,4095
5.246918807999464,2477,4095,4095
5.249608229998557,1936,3499,3269
5.252298901999893,2687,4095,4095
5.255063575001259,1979,285,2454
5.257828912999685,2323,4095,4095
5.260521585998504,2417,4095,4095
5.26321392400132,2445,4095,4095
5.265903637999145,2326,4095,4095
5.268592643999,2486,4095,4095
5.271282648998749,2064,3430,3046
5.273973280000064,2629,4095,4095
5.276662367999961,2274,4095,4095
5.279352999001276,1895,4095,4095
5.282049213001301,2432,4095,4095
5.284742926000035,1906,1232,2510
5.28743859899987,2477,4095,4095
5.29013156200017,1981,3206,3216
5.292820942999242,2098,2896,3241
5.295512406999478,1945,2710,3145
5.298201620000327,2293,4095,4095
5.300891751001473,2421,4095,4095
5.303579589999572,2448,4095,4095
5.306267845000548,2471,4095,4095
5.308954891999747,2288,4095,4095
5.311645313999179,2078,3774,3042
5.314336153001932,2594,4095,4095
5.317027909000899,2334,4095,4095
5.319722247000755,2320,4095,4095
5.322417752999172,2433,4095,4095
5.32510805000129,1905,1673,2935
5.327806222001527,2481,4095,4095
5.330494935999013,2006,3686,3325
5.333181690999481,2515,4095,4095
5.335869447000732,1930,4095,3583
5.33855941100046,2417,4095,4095
5.341248790999089,2423,4095,4095
5.3439775469996675,2448,4095,4095
5.346668760001194,2471,4095,4095
5.349364391000563,1899,4095,3361
5.352053229999001,2617,4095,4095
5.35474406800131,1989,1919,2663
5.357434656998521,2327,4095,4095
5.360123496000597,2416,4095,4095
5.362813668001763,2414,4095,4095
5.365520715000457,1910,4095,3811
5.368208220999804,2480,4095,4095
5.3708983510005055,2034,3610,3088
5.37358806499833,2656,4095,4095
5.37627607000104,2006,4095,4095
5.378967034001107,1865,2830,3247
5.381660373001068,2423,4095,4095
5.384350544998597,2448,4095,4095
5.387042425998516,2475,4095,4095
5.389734888998646,1959,3421,3277
5.392425060999813,3107,4095,4095
5.395116150000831,2341,745,2637
5.397805946999142,2598,4095,4095
5.4005364529984945,2559,4095,4095
5.403231291998964,2495,4095,4095
5.4059221310017165,2337,4095,4095
5.40861176099861,2469,4095,4095
5.413199394999538,2053,3429,3013
5.415899151001213,1924,4095,3602
5.418591990001005,2406,4095,4095
5.421333995000168,2414,4095,4095
5.4241084169989335,2445,4095,4095
5.42687146499884,2465,4095,4095
5.4295718030007265,1935,3392,3293
5.43226180900092,2672,4095,4095
5.434959730999253,1978,257,2457
5.437656319998496,2305,4095,4095
5.440350699998817,2410,4095,4095
5.443045538999286,2432,4095,4095
5.445740294999268,2087,4095,4095
5.4484331749990815,2473,4095,4095
5.451128139000502,2057,3378,3084
5.453821061000781,2626,4095,4095
5.4565271499996015,2222,4095,4095
5.459225947000959,1870,4095,3914
5.461922119000519,2422,4095,4095
5.464608040998428,1907,2559,2832
5.467302713001118,2471,4095,4095
5.469997759999387,1974,3247,3217
5.472695432999899,2110,2684,3136
5.4753980210007285,1955,2279,3039
5.4780956100003095,2303,4095,4095
5.480788406999636,2422,4095,4095
5.483484246000444,2448,4095,4095
5.486178043000109,2438,4095,4095
5.488872214998992,2322,4095,4095
5.491568263001682,2070,3578,3008
5.49426726800084,2559,4095,4095
5.496962231998623,2289,4095,4095
5.499658528999134,2291,4095,4095
5.502353242998652,2426,4095,4095
5.505044582001574,1904,1473,2907
5.507740670000203,2471,4095,4095
5.510434466999868,2010,3311,3241
5.513128556001902,2413,4095,4095
5.515823936999368,1931,4095,3555
5.518516316999012,2416,4095,4095
5.521210572998825,2416,4095,4095
5.523937245001434,2447,4095,4095
5.526630000000296,2465,4095,4095
5.529350548000366,1933,4095,3408
5.532044719999249,2501,4095,4095
5.534734017001028,1993,1696,2644
5.537424856000143,2323,4095,4095
5.540115361000062,2415,4095,4095
5.542809700000362,2410,4095,4095
5.545503371999075,1917,4095,3857
5.5481945860010455,2475,4095,4095
5.55089150799904,2043,3551,3119
5.553593012999045,2647,4095,4095
5.556289935000677,2010,4095,4095
5.5589853989986295,1872,3467,3451
5.5616800710013194,2423,4095,4095
5.5643735349985946,2451,4095,4095
5.567068582000502,2464,4095,4095
5.5697644210013095,1956,3403,3302
5.572454551998817,2463,4095,4095
5.575146890001633,1117,1123,2750
5.577840604000812,1220,4095,4095
5.5805318179991446,1600,4095,4095
5.58322803199917,1961,4095,4095
5.585924871000316,2131,4095,4095
5.588620500999241,2428,4095,4095
5.5913238399989496,2090,3409,2990
5.594022886998573,2641,4095,4095
5.596710558998893,2307,4095,4095
5.599405731001752,2149,4095,4095
5.602149487000133,2437,4095,4095
5.604858159000287,1911,471,2480
5.607553956000629,2475,4095,4095
5.610253670001839,1997,3152,3182
5.6129456749986275,2112,4095,4095
5.615640639000048,1939,3487,3337
5.618337685998995,2279,4095,4095
5.62102702500124,2418,4095,4095
5.623721530999319,2446,4095,4095
5.626419577998604,2467,4095,4095
5.629113333001442,1936,4095,3617
5.631806921999669,2092,4095,4095
5.634498218998488,2339,4095,4095
5.63718922499902,2320,4095,4095
5.639880812999763,2414,4095,4095
5.642575568999746,2400,4095,4095
5.645300074000261,1916,3247,3341
5.647997788000794,2477,4095,4095
5.65069541900084,2032,4003,3229
5.653392506999808,2661,4095,4095
5.6560843879997265,1921,4095,4095
5.658778852000978,1875,3124,3120
5.6614708570014045,2422,4095,4095
5.66416282100181,2450,4095,4095
5.666857118001644,2471,4095,4095
5.669551123999554,1939,3475,3302
5.672242128999642,2679,4095,4095
5.6749376760017185,1984,346,2464
5.677629847999924,2303,4095,4095
5.68032485400181,2418,4095,4095
5.683025193000503,2437,4095,4095
5.685721614998329,2135,4095,4095
5.688413537001907,2478,4095,4095
5.691108709001128,2061,3395,3047
5.693802631001745,2627,4095,4095
5.696495511998364,2204,4095,4095
5.69919097499951,1887,4095,4095
5.701885022001079,2427,4095,4095
5.704579069999454,1908,2506,2759
5.7073073249994195,2479,4095,4095
5.7100169969999115,1974,3511,3239
5.712714668999979,2109,2768,3163
5.715412550001929,1951,2419,3056
5.718110514000728,2273,4095,4095
5.720803061001789,2422,4095,4095
5.723501066000608,2447,4095,4095
5.7261989879989414,2459,4095,4095
5.728893785999389,2307,4095,4095
5.731585790999816,2079,3700,3040
5.734277505001955,2559,4095,4095
5.736966510001366,2293,4095,4095
5.739661098999932,2341,4095,4095
5.7423531460008235,2433,4095,4095
5.74504673499905,1917,1737,2971
5.747744406999118,2478,4095,4095
5.750439829000243,2016,3628,3344
5.753131625999231,2512,4095,4095
5.755823964998854,1935,4095,3543
5.758518220998667,2405,4095,4095
5.761209767999389,2474,4095,4095
5.763934564998635,2830,4095,4095
5.766631236998364,3388,4095,4095
5.769354408999789,2736,4095,3455
5.772047498001484,4016,4095,4095
5.774742254001467,2897,1502,2609
5.777440008998383,3024,4095,4095
5.780132223000692,2702,4095,4095
5.782828144998348,2512,4095,4095
5.785522817001038,1904,4095,4095
5.788213198000449,2446,4095,4095
5.790906661000918,2017,3771,3182
5.793601249999483,2624,4095,4095
5.796292964001623,2018,4095,4095
5.798990843999491,1872,3648,3542
5.801688474999537,2427,4095,4095
5.8044148970002425,2455,4095,4095
5.8080359880004835,2471,4095,4095
5.810744243000954,1965,3560,3343
5.813445039999351,2662,4095,4095
5.816139046000899,1927,4095,3810
5.8188327600000775,1877,2769,3241
5.821525848001329,2425,4095,4095
5.8242176870007825,2449,4095,4095
5.82691423399956,2477,4095,4095
5.829606406001403,1949,4095,3481
5.832298787001491,2619,4095,4095
5.83499008400031,1979,347,2500
5.837682339999446,2309,4095,4095
5.840372053000465,2419,4095,4095
5.843063849999453,2441,4095,4095
5.845754355999816,2306,4095,4095
5.848445360999904,2482,4095,4095
5.851140157999907,2065,3920,3184
5.853834039000503,2629,4095,4095
5.85652612800186,2069,4095,4095
5.859220549999009,1875,4095,4095
5.861914180000895,2432,4095,4095
5.864603518999502,1914,1666,2623
5.867297066000901,2478,4095,4095
5.869992571999319,1982,4077,3411
5.872687619001226,2112,2661,3169
5.875383957998565,1959,2256,3023
5.878080712998781,2261,4095,4095
5.880772510001407,2419,4095,4095
5.883468266001728,2447,4095,4095
5.886161770999024,2403,4095,4095
5.8888529850009945,2359,4095,4095
5.89154811499975,2085,3631,3041
5.894241787998908,2583,4095,4095
5.8969302930017875,2352,4095,4095
5.899628672999825,2306,4095,4095
5.902329511998687,2419,4095,4095
5.905025433999981,1917,1682,2975
5.9077226070003235,2480,4095,4095
5.910415736998402,2015,3967,3423
5.913107783999294,2496,4095,4095
5.915804997999658,1937,3907,3419
5.918500294999831,2423,4095,4095
5.921191509001801,2426,4095,4095
5.923884097999689,2448,4095,4095
5.926580269999249,2471,4095,4095
5.929303274999256,1938,4095,4095
5.931998405998456,2550,4095,4095
5.934692910999729,1994,2307,2815
5.937387166999542,2371,4095,4095
5.9400812560015765,2411,4095,4095
5.942774011000438,2442,4095,4095
5.945467475001351,1919,4095,4095
5.948156897000445,2481,4095,4095
5.950849027001823,2052,4095,3451
5.953545365999162,2363,4095,4095
5.956237080001301,880,4095,4095
5.958932001998619,880,3273,3422
5.961626298998453,1744,4095,4095
5.9643186799985415,2096,4095,4095
5.9670294349998585,2342,4095,4095
5.969726565999736,1943,4047,3415
5.972419654000987,2145,3683,3822
5.97511036799915,2003,634,2617
5.977804374000698,2310,4095,4095
5.9804951709993475,2434,4095,4095
5.98319026000172,2451,4095,4095
5.985884847999841,2384,4095,4095
5.988576021001791,2485,4095,4095
5.991272609000589,2077,3705,3094
5.993966322999768,2613,4095,4095
5.996660412001802,2015,4095,4095
5.999355916999775,2177,4095,4095
6.002052464998997,2433,4095,4095
6.004776052999659,1915,390,2481
6.007488391998777,2479,4095,4095
6.01018610599931,2001,3142,3190
6.012920362001751,2115,3441,3459
6.015655366998544,1950,2800,3145
6.0183509980015515,2249,4095,4095
6.021043253000244,2429,4095,4095
6.023758675000863,2450,4095,4095
6.0264673060009954,2479,4095,4095
6.029163852999773,2027,4095,4095
6.031857942001807,2094,4095,4095
6.034550322001451,2007,3121,3009
6.037237202999677,2301,4095,4095
6.039980375000596,2418,4095,4095
6.042675879998569,2367,4095,4095
6.04536821900183,1910,4095,3823
6.048061265999422,2455,4095,4095
6.050752646999172,2033,4095,3491
6.053448026999831,2658,4095,4095
6.056140074000723,1925,4095,3787
6.058836162999796,1874,3013,3336
6.061531627001386,2428,4095,4095
6.064226215999952,2453,4095,4095
6.066924554001162,2477,4095,4095
6.069620476999262,1955,4095,3638
6.072312524000154,2608,4095,4095
6.075006737999502,1979,329,2501
6.077701450998575,2225,4095,4095
6.080393831998663,2421,4095,4095
6.083088295999914,2441,4095,4095
6.085783842998353,2178,4095,4095
6.088475306998589,2490,4095,4095
6.091175894998742,2074,4095,3547
6.093873276000522,2625,4095,4095
6.096565905998432,1958,4095,4095
6.0992626619990915,2045,4095,4095
6.101956916998461,2435,4095,4095
6.10464933899857,1916,816,2485
6.107344970001577,2480,4095,4095
6.110037933998683,1989,3975,3415
6.112723605998326,2112,3222,3358
6.115420153000741,1959,2523,3102
6.118117199999688,2199,4095,4095
6.12080945499838,2421,4095,4095
6.1235059190003085,2448,4095,4095
6.126201341001433,2470,4095,4095
6.128898721999576,2365,4095,4095
6.131629519000853,2093,4095,3264
6.13435035799921,2587,4095,4095
6.137047154999891,1949,4095,4095
6.139740326998435,2368,4095,4095
6.14243279099901,2475,4095,4095
6.145125546001509,2259,3023,3351
6.147826218999398,3301,4095,4095
6.151859517998673,2843,4095,3569
6.15464164900186,3909,4095,4095
6.157379904998379,2903,4095,4095
6.16007540999999,2693,4095,4095
6.162770291000925,2465,4095,4095
6.16546167100023,1914,4095,3875
6.168150385001354,2455,4095,4095
6.170840765000321,2025,3772,3168
6.173527853999985,2630,4095,4095
6.176215358998888,2125,4095,4095
6.178905157001282,1876,3199,3402
6.1815938700019615,2430,4095,4095
6.184282666999934,2378,4095,4095
6.186975673001143,2480,4095,4095
6.189699637001468,1955,4095,3449
6.192405683999823,2111,4095,4095
6.195094398000947,1973,610,2605
6.197786486998666,2231,4095,4095
6.2004797840018,2422,4095,4095
6.2031701220003015,2456,4095,4095
6.205904128000839,2355,4095,4095
6.208596257998579,2484,4095,4095
6.2112882639994496,2079,4095,3245
6.213989394000237,2613,4095,4095
6.216684066999733,1989,4095,4095
6.219377821998933,2224,4095,4095
6.222067785998661,2427,4095,4095
6.2247582909985795,1920,576,2469
6.227448754998477,2480,4095,4095
6.230139052000595,2000,4095,3468
6.23282876599842,2112,3611,3475
6.235519605001173,1951,3101,3216
6.238211234998744,2115,4095,4095
6.240895448998344,2428,4095,4095
6.243586663000315,2450,4095,4095
6.246277127000212,2385,4095,4095
6.248966757000744,2439,4095,4095
6.251657428998442,2094,4095,4095
6.254346435001935,2580,4095,4095
6.257035440001346,2240,4095,4095
6.259728528999403,2418,4095,4095
6.262419908998709,2386,4095,4095
6.265108165000129,1917,3120,3335
6.267796754000301,2481,4095,4095
6.270485301000008,2030,4095,3574
6.273176180999144,2663,4095,4095
6.2758691029994225,1938,3822,3429
6.2785605669996585,2246,4095,4064
6.281249864001438,2427,4095,4095
6.2839776610017,2453,4095,4095
6.286672417001682,2478,4095,4095
6.28936471400084,1938,4095,3408
6.292054761001054,2674,4095,4095
6.2947443919983925,1990,1039,2559
6.297434479998628,2160,4095,4095
6.3001238190008735,2422,4095,4095
6.302815158000158,2447,4095,4095
6.305504537998786,1954,4095,4095
6.308192626998789,2483,4095,4095
6.3108818830005475,2055,4095,3577
6.313572220999049,2653,4095,4095
6.316260060000786,1923,4095,3439
6.318948274001741,1876,4095,3679
6.321650613001111,2429,4095,4095
6.324341618001199,2403,4095,4095
6.327031499000441,2480,4095,4095
6.329723711998668,1965,4095,3630
6.332414468000934,2107,3945,3176
6.335103389999858,1094,464,2539
6.33779464500185,1234,4095,4095
6.340478776000964,1582,4095,4095
6.343169072999444,1953,4095,4095
6.345859994999046,2154,4095,4095
6.348549792000995,2377,4095,4095
6.351238130999263,2093,3726,3135
6.353927719999774,2655,4095,4095
6.35661655900185,2086,4095,4095
6.359306939000817,2107,4095,4095
6.361995194998599,2448,4095,4095
6.364685075001034,1920,454,2480
6.367376204998436,2481,4095,4095
6.370066461000533,1986,3321,3217
6.372754299998633,2111,3146,3299
6.375443222001195,1956,3127,3219
6.378131852001388,1887,4095,3474
6.380819858000905,2430,4095,4095
6.38350907199856,2448,4095,4095
6.386202244000742,2469,4095,4095
6.388891874001274,2267,4095,4095
6.391583255001024,2087,4037,3066
6.3942704270011745,2559,4095,4095
6.396958474000712,1951,4095,4095
6.399647979000292,2309,4095,4095
6.402335776001564,2441,4095,4095
6.405023699000594,1921,2705,3242
6.40775378699982,2480,4095,4095
6.410445667999738,2020,4061,3373
6.413135131999297,2598,4095,4095
6.4158248040002945,1936,4095,3470
6.4185176430000865,2373,4095,4095
6.42120810599954,2432,4095,4095
6.4239239870003075,2452,4095,4095
6.426615283999126,2477,4095,4095
6.4293333729983715,1939,4095,3445
6.432027211998502,2537,4095,4095
6.43471750900062,1998,1383,2607
6.437407847999566,1895,4095,2320
6.440094519999548,2420,4095,4095
6.442785066999932,2337,4095,4095
6.445476446999237,1924,4095,4095
6.448168578001059,2480,4095,4095
6.450863250000111,2047,3487,3114
6.4535545889993955,2646,4095,4095
6.45624463599961,1923,3914,3341
6.458933516001707,1883,3189,3359
6.46162239700061,2432,4095,4095
6.464309194001544,2398,4095,4095
6.4669978659985645,2475,4095,4095
6.46968670500064,1957,2675,3084
6.472372334999818,2112,3923,3184
6.475061924000329,1970,1163,2743
6.477757388001919,2055,4095,4095
6.480448600999807,2414,4095,4095
6.4831417739987955,2447,4095,4095
6.48583102900011,2272,4095,4095
6.488519575999817,2450,4095,4095
6.491209623000032,2071,4095,3202
6.493900629000564,2614,4095,4095
6.49659046799934,1975,4095,4095
6.499280348001776,2118,4095,4095
6.501971477999177,2434,4095,4095
6.50466177600174,1919,637,2479
6.507354448000115,2480,4095,4095
6.51004399500016,1995,3505,3280
6.5127338339989365,2103,2725,3228
6.51542521400188,1956,2361,3030
6.5181164700006775,2149,4095,4095
6.520806017000723,2480,4095,4095
6.523496354999224,2863,4095,4095
6.526185111000814,3401,4095,4095
6.528872032999061,3639,4095,4095
6.531560788000206,3789,4095,3229
6.534249877000548,4095,4095,4095
6.5369403830009105,2707,4095,3344
6.539631472001929,2765,4095,4095
6.542322643999796,2557,4095,4095
6.545013774000836,1902,1562,2896
6.547704529999464,2421,4095,4095
6.5503955770000175,1969,4095,3888
6.553087749001861,2349,4095,4095
6.555780004000553,1921,3056,3200
6.558469300998695,2333,4095,4095
6.561158599000919,2423,4095,4095
6.5638559789986175,2448,4095,4095
6.5665451509994455,2473,4095,4095
6.569236989998899,1939,4095,3511
6.571953954000492,2467,4095,4095
6.5746457089990145,1999,2738,2934
6.577353090000543,2273,4095,4095
6.58004426199841,2423,4095,4095
6.582734308998624,2320,4095,4095
6.58542498099996,1926,4095,3702
6.5881123619983555,2480,4095,4095
6.590801949998422,2055,3469,3141
6.593509122001706,2661,4095,4095
6.596197419999953,1927,4095,3478
6.598886217001564,1882,3219,3394
6.601576222001313,2433,4095,4095
6.604263436001929,2427,4095,4095
6.606952316000388,2479,4095,4095
6.609679404999042,1949,4095,3523
6.612370951999765,2386,4095,4095
6.6150625410009525,1971,499,2585
6.617750796998735,1984,4095,4095
6.6204381349998584,2425,4095,4095
6.623127973998635,2448,4095,4095
6.625818520999019,2341,4095,4095
6.628507735000312,2485,4095,4095
6.631197531998623,2069,4095,3161
6.633887620999303,2614,4095,4095
6.636579251000512,1917,4095,3466
6.639268506998633,2245,4095,4095
6.641961262001132,2434,4095,4095
6.644653185001516,1917,890,2514
6.647342648000631,2480,4095,4095
6.6500320289997035,1993,4095,3515
6.652720243000658,2109,2990,3280
6.655410831001063,1962,2277,3008
6.658100420001574,1883,4095,2378
6.660791591999441,2425,4095,4095
6.663480555998831,2450,4095,4095
6.666170978001901,2469,4095,4095
6.668859108998731,2366,4095,4095
6.671548864000215,2085,3561,3067
6.674241911001445,2559,4095,4095
6.676933667000412,2096,4095,4095
6.679623963998893,2339,4095,4095
6.682315093999932,2421,4095,4095
6.685003015998518,1922,1329,2828
6.6876925629985635,2450,4095,4095
6.690382861001126,2021,4095,4095
6.693071115998464,2101,4095,4095
6.695761330000096,1946,3281,3215
6.698450709998724,2431,4095,4095
6.701139674001752,2432,4095,4095
6.703830304999428,2451,4095,4095
6.706521477000933,2477,4095,4095
6.709212606998335,1943,4095,3697
6.711929613000393,2435,4095,4095
6.714623160001793,1239,2221,2785
6.717338499001926,1149,4095,4095
6.720030628999666,1511,4095,4095
6.722721050999098,1825,4095,4095
6.7254125569998,1679,4095,3826
6.728101687000162,2410,4095,4095
6.730791442998452,2059,3862,3159
6.733481072998984,2687,4095,4095
6.7361726199997065,1961,4095,3579
6.738861666999583,1904,2982,3294
6.741553298001236,2445,4095,4095
6.744238802999462,2461,4095,4095
6.74692876699919,2480,4095,4095
6.74962068899913,1953,4095,3536
6.752309528001206,2101,3810,3217
6.755001282999729,1975,1583,2897
6.757692163999309,2202,4095,4095
6.760379793999164,2422,4095,4095
6.763069799999357,2441,4095,4095
6.765759513000376,1999,4095,4095
6.76845143600076,2374,4095,4095
6.771144358001038,2064,4095,3453
6.773834696999984,2617,4095,4095
6.776524035001785,1917,4095,4095
6.779213957001048,1994,4095,4095
6.781905338000797,2437,4095,4095
6.784593010001117,1920,1882,2693
6.7872837239992805,2478,4095,4095
6.789974562998395,1984,4095,3468
6.79266198500045,2107,2897,3268
6.795349364998401,1958,2091,2992
6.798037912001746,2190,4095,4095
6.80072500100141,2432,4095,4095
6.803414840000187,2449,4095,4095
6.806106762000127,2397,4095,4095
6.808795017001103,2273,4095,4095
6.811515981000412,2082,3327,2971
6.8142083620005,2591,4095,4095
6.816899492001539,1907,4095,4095
6.819589163998899,2349,4095,4095
6.822280336000404,2394,4095,4095
6.824968884000555,1920,2073,3101
6.827658721998887,2480,4095,4095
6.8303493530002015,2013,3291,3247
6.8330409830014105,2415,4095,4095
6.835733780000737,1941,4095,3670
6.838424077999662,2432,4095,4095
6.841114499999094,2432,4095,4095
6.84380408799916,2453,4095,4095
6.846495593999862,2479,4095,4095
6.849187015999632,1941,4095,3622
6.851875896001729,2449,4095,4095
6.854566319001606,2000,3081,3088
6.857253115998901,2267,4095,4095
6.859972663001827,2426,4095,4095
6.862672585000837,2446,4095,4095
6.865363715001877,1923,4095,3648
6.868052221001562,2478,4095,4095
6.87075414300125,2043,4095,3491
6.8734539819997735,2649,4095,4095
6.876145778998762,1927,4095,3679
6.87883574299849,1882,3196,3407
6.881526706998557,2435,4095,4095
6.884215378999215,2462,4095,4095
6.886904801001947,2477,4095,4095
6.889593765001337,1953,3519,3329
6.892282353001065,2515,4095,4095
6.894970817000285,1982,265,2433
6.89766278100069,1876,4095,2255
6.90035278600044,2375,4095,4095
6.903044999999111,2495,4095,4095
6.905733130999579,2427,4095,4095
6.908420177998778,2752,4095,4095
6.9111096000015095,2587,2914,2997
6.913796813998488,3465,4095,4095
6.9164827360000345,2789,4095,4095
6.91917099100101,2155,4095,4095
6.9218603299996175,2549,4095,4095
6.924558418999368,1942,1259,2559
6.927246341001592,2467,4095,4095
6.929937805001828,1968,3505,3276
6.932627185000456,2096,2817,3205
6.93531610699938,1954,1951,2929
6.938006153999595,2116,4095,4095
6.940696492998541,2425,4095,4095
6.943385457001568,2448,4095,4095
6.946075628999097,2349,4095,4095
6.948765885001194,2336,4095,4095
6.951455097998405,2085,4095,3296
6.954145312000037,2589,4095,4095
6.956832400999701,1911,4095,3802
6.959523656001693,2335,4095,4095
6.962214454000787,2417,4095,4095
6.964902916999563,1920,1733,2960
6.967592380999122,2480,4095,4095
6.970282595000754,2011,3777,3350
6.972969309001201,2104,4095,4095
6.9756595229991945,1946,2923,3168
6.978350027999113,2418,4095,4095
6.981037825000385,2431,4095,4095
6.983726372000092,2448,4095,4095
6.986416627998551,2477,4095,4095
6.98910450800031,1938,4095,3677
6.991792346998409,2091,4095,4095
6.9944836020004,2004,4069,3353
6.997170774000551,1903,4095,2753
6.999859154999285,2399,4095,4095
7.002550159999373,2346,4095,4095
7.005238374000328,1921,3747,3476
7.007958879999933,2480,4095,4095
7.010650135001924,2037,3938,3295
7.013410724001005,2659,4095,4095
7.016128438001033,1934,4095,3471
7.018821860001481,1886,3204,3393
7.021511199000088,2433,4095,4095
7.024201371001254,2459,4095,4095
7.0268924180018075,2480,4095,4095
7.029582215000119,1955,4095,3862
7.032268637001835,2559,4095,4095
7.03495864299839,1978,361,2418
7.037645690001227,2197,4095,4095
7.040336570000363,2434,4095,4095
7.04302457599988,2455,4095,4095
7.045715665000898,2383,4095,4095
7.048405002999061,2491,4095,4095
7.05109346700192,2058,4095,3216
7.053782348000823,2619,4095,4095
7.05647222799962,1919,4095,3520
7.059163317000639,1936,4095,4095
7.06185290600115,2436,4095,4095
7.064540743998805,1913,2068,2729
7.067231624998385,2477,4095,4095
7.069921254998917,1982,4095,3881
7.072609468999872,2110,2676,3191
7.075299015999917,1963,1648,2815
7.077986272000999,2096,4095,4095
7.080672776999563,2429,4095,4095
7.083361199001956,2448,4095,4095
7.08604878800179,2466,4095,4095
7.088736669000355,2324,4095,4095
7.091425257000083,2081,3743,3071
7.0942433460004395,1978,4095,4095
7.097015893999924,815,4095,4095
7.099711857001239,1424,4095,4095
7.102406820999022,1781,4095,4095
7.105098367999744,1648,2321,3143
7.10779216499941,2390,4095,4095
7.110482004001824,2033,4095,3392
7.113172217999818,2709,4095,4095
7.115861681999377,1981,3459,3318
7.118551645999105,1919,3211,3741
7.121240026001033,2444,4095,4095
7.123963490001188,2458,4095,4095
7.1266567450002185,2479,4095,4095
7.1293482090004545,2019,4095,4095
7.132036589999188,2667,4095,4095
7.13472542800082,1990,1442,2656
7.137454559000616,2098,4095,4095
7.140185980999377,2425,4095,4095
7.142890153001645,2449,4095,4095
7.14586753399999,2177,4095,4095
7.148566665000544,2398,4095,4095
7.151265961998433,2075,3675,3089
7.15396413399867,2608,4095,4095
7.156658514999435,2109,4095,4095
7.159352769998804,2163,4095,4095
7.162049234000733,2439,4095,4095
7.164742073000525,1915,803,2712
7.167438870001206,2480,4095,4095
7.17013366700121,2000,4095,3457
7.172827296999458,2103,4095,4095
7.17552334499851,1953,2672,3120
7.178216183001496,1891,4095,4095
7.180907564001245,2431,4095,4095
7.183603027999197,2449,4095,4095
7.186301450001338,2477,4095,4095
7.188991914001235,1943,4095,3659
7.191686835998553,2089,4095,4095
7.194385799000884,2405,4095,4095
7.197079555000528,2141,4095,4095
7.199774435001018,2426,4095,4095
7.202469191001001,2385,4095,4095
7.205158613000094,1920,3659,3504
7.207851743001811,2480,4095,4095
7.210545748999721,2030,4007,3361
7.213305088000197,2661,4095,4095
7.21600280200073,1937,4095,3418
7.218698764998408,1890,2736,3175
7.221394562999194,2430,4095,4095
7.2240874849994725,2455,4095,4095
7.226783114998398,2480,4095,4095
7.229477536999184,1950,4007,3403
7.232168376001937,2640,4095,4095
7.234863423000206,1984,338,2447
7.237556804000633,2209,4095,4095
7.240249851001863,2427,4095,4095
7.242945398000302,2448,4095,4095
7.2456518200015125,2122,4095,4095
7.248347951001051,2485,4095,4095
7.251043038999342,2065,3377,3184
7.2537349199992605,2609,4095,4095
7.256427134001569,2057,4095,4095
7.259122306000791,1987,4095,4095
7.261818852999568,2437,4095,4095
7.264511483001115,1918,602,2509
7.267206029999215,2477,4095,4095
7.2699020780019055,1985,4095,3412
7.272594250000111,2107,2753,3217
7.275288463999459,1966,2016,2941
7.277978051999526,2051,4095,4095
7.280669973999466,2364,4095,4095
7.2833644800011825,2491,4095,4095
7.286057026998606,2512,4095,4095
7.288749115999963,2671,4095,4095
7.291443412999797,2630,4095,3443
7.294138084998849,3439,4095,4095
7.296829465998599,2453,4095,4095
7.299524345999089,2582,4095,4095
7.30221931000051,2541,4095,4095
7.304909899001359,1939,924,2749
7.307602903998486,2465,4095,4095
7.310296951000055,1998,4095,3536
7.31299054000192,2417,4095,4095
7.315687878999597,1935,3378,3307
7.318382468001801,2427,4095,4095
7.3210731809995195,2427,4095,4095
7.32376681200185,2455,4095,4095
7.326461442000436,2477,4095,4095
7.329152073001751,1942,4095,4095
7.331846994999069,2525,4095,4095
7.334543624998332,2000,2151,2819
7.337235672999668,1903,4095,2439
7.339960386001621,2425,4095,4095
7.342655642001773,2334,4095,4095
7.345349231,1922,4095,4095
7.34804002799865,2479,4095,4095
7.35073194999859,2045,2902,3005
7.35342420500092,2649,4095,4095
7.356115544000204,2032,4095,4095
7.358810091001942,1888,3098,3381
7.361504638000042,2431,4095,4095
7.3641998109997076,2460,4095,4095
7.366897898999014,2474,4095,4095
7.369592154998827,1957,4095,3504
7.3722841599992535,2427,4095,4095
7.374978249001288,1979,847,2640
7.377675129999261,1889,4095,4095
7.380367926998588,2427,4095,4095
7.383063557001151,2443,4095,4095
7.385756103998574,2032,4095,4095
7.388447276000079,2485,4095,4095
7.391144281999004,2059,4095,4095
7.393838120999135,2610,4095,4095
7.396529583998927,1926,4095,4095
7.399223298001743,2099,4095,4095
7.4019163039993146,2441,4095,4095
7.404604975999973,1918,644,2473
7.407299023001542,2478,4095,4095
7.40999586199905,1994,3865,3338
7.412689826000133,2107,3235,3359
7.415386538999883,1957,2559,3087
7.418081378000352,2245,4095,4095
7.420773842000926,2427,4095,4095
7.423467846998392,2448,4095,4095
7.426161185998353,2475,4095,4095
7.428856024998822,2273,4095,4095
7.431553072001407,2089,3892,3070
7.434245660999295,2559,4095,4095
7.4369376249997,2051,4095,4095
7.439630130000296,2384,4095,4095
7.442324801999348,2402,4095,4095
7.445018223999796,1920,2062,3018
7.447707397001068,2479,4095,4095
7.450398319000669,2021,4095,3571
7.453088281999953,2673,4095,4095
7.4557788300007815,1943,2559,3022
7.458474293001927,1883,3735,3877
7.461164423999435,2411,4095,4095
7.463857596001617,2453,4095,4095
7.466551225999865,2473,4095,4095
7.469241899001645,1938,3973,3349
7.4719689459998335,2613,4095,4095
7.474665826001001,1216,1054,2544
7.477361414999905,1070,4095,4095
7.480051629001537,1526,4095,4095
7.4827467590002925,1905,4095,4095
7.485440014999767,1687,4095,4095
7.488130687001103,2411,4095,4095
7.490826526001911,2065,4095,3270
7.493522863998805,2682,4095,4095
7.496213537000585,1958,4095,3431
7.498906459000864,1902,4095,4095
7.501600381001481,2441,4095,4095
7.504293844998756,1920,3632,3690
7.50699080800041,2480,4095,4095
7.509686271998362,1968,4095,3487
7.512378069000988,2107,3239,3171
7.515071908001119,1967,1077,2726
7.517763996998838,2221,4095,4095
7.520457211001485,2423,4095,4095
7.523153715999797,2449,4095,4095
7.5258489299994835,2352,4095,4095
7.528540186001919,2484,4095,4095
7.531232858000294,2078,3439,3081
7.53392911300034,2608,4095,4095
7.536623994001275,1914,4095,3536
7.539320831998339,2275,4095,4095
7.542016712999612,2445,4095,4095
7.544708092998917,1922,317,2526
7.547401265001099,2486,4095,4095
7.550094146001356,2000,4095,3840
7.552787650998653,2106,4095,4095
7.555481906998466,1956,3572,3349
7.558177786999295,2279,4095,4095
7.560869501001434,2432,4095,4095
7.563563840001734,2449,4095,4095
7.566259054001421,2430,4095,4095
7.56895330900079,2125,4095,4095
7.5716500650014495,2089,4095,3370
7.574344278000353,2007,3010,2944
7.57703603399932,2128,4095,4095
7.579730247998668,2397,4095,4095
7.58242412799882,2435,4095,4095
7.5851168840017635,1919,3633,3475
7.587809513999673,2481,4095,4095
7.590502227998513,2036,4095,3443
7.593220733000635,2676,4095,4095
7.595959947000665,1936,3853,3379
7.598655869001959,1882,2715,3197
7.601352624998981,2433,4095,4095
7.604043755000021,2458,4095,4095
7.606735510998988,2480,4095,4095
7.609425891001592,1949,4095,3603
7.612114980001934,2668,4095,4095
7.6148434019996785,1989,430,2441
7.6175357829997665,2122,4095,4095
7.620224580001377,2421,4095,4095
7.6229124599994975,2448,4095,4095
7.625600631999987,2107,4095,4095
7.628287137998996,2484,4095,4095
7.630975643001875,2064,3559,3127
7.633668774000398,2630,4095,4095
7.636357778999809,1929,4095,4095
7.639046200998564,1879,4095,4095
7.641733789998398,2432,4095,4095
7.644422837001912,1919,1584,2591
7.647111467998911,2477,4095,4095
7.649798806000035,1979,3408,3263
7.6524886039987905,2112,2654,3107
7.655186151001544,1963,504,2542
7.657886364999285,2266,4095,4095
7.660576995000156,2419,4095,4095
7.6632817089994205,2637,4095,4095
7.665980672998558,2853,4095,4095
7.668671511000866,3025,4095,4095
7.671366267000849,2864,4095,3265
7.674060564000683,3574,4095,4095
7.676751360999333,2475,4095,4095
7.679445325000415,2625,4095,4095
7.6830237899994245,2539,4095,4095
7.685733337999409,1953,1728,2961
7.6884288850014855,2463,4095,4095
7.691124557000876,2054,3711,3126
7.693820061998849,2597,4095,4095
7.69651448500008,1903,4095,3483
7.699211572999047,1990,4095,4095
7.701905704001547,2435,4095,4095
7.704596792998927,1919,592,2462
7.707292547998804,2480,4095,4095
7.709987012000056,1995,4095,3443
7.712678766998579,2115,3391,3402
7.715373688999534,1954,2371,3024
7.718070070000977,1993,4095,4095
7.7207626169984,2429,4095,4095
7.723458247000963,2448,4095,4095
7.726155836000544,2470,4095,4095
7.72885346700059,2365,4095,4095
7.731550722000975,2097,4058,3236
7.734247560998483,2517,4095,4095
7.736940899998444,2209,4095,4095
7.739635863999865,2416,4095,4095
7.742331244000525,2439,4095,4095
7.745023625000613,1919,2397,3147
7.747716379999474,2477,4095,4095
7.750408594001783,2031,4095,4095
7.753099599001871,2640,4095,4095
7.755791980001959,1936,4080,3380
7.7584821519994875,1882,3127,3137
7.761176906999026,2430,4095,4095
7.763874288000807,2451,4095,4095
7.766583960001299,2473,4095,4095
7.769303632001538,2064,4095,4095
7.771997888001351,2675,4095,4095
7.774694684998394,1986,813,2515
7.777392064999731,2065,4095,4095
7.780085654001596,2434,4095,4095
7.782779868000944,2432,4095,4095
7.785477540001011,1924,4095,4095
7.7881705869986035,2481,4095,4095
7.790867468000215,2064,4095,3273
7.793568430999585,2640,4095,4095
7.796264519998658,1920,4095,3421
7.79896677600118,1881,4095,4095
7.801663780999661,2432,4095,4095
7.804356912001822,1920,2426,2782
7.807053167001868,2473,4095,4095
7.809748088999186,1982,4095,3535
7.812439261000691,2113,2848,3163
7.815181267000298,1966,1137,2694
7.8178951059999235,1948,4095,4095
7.820591193998553,2422,4095,4095
7.8232852000001,2447,4095,4095
7.825985496998328,2403,4095,4095
7.828681211001822,2414,4095,4095
7.831374966001022,2091,3694,3082
7.834071429999312,2593,4095,4095
7.8367621440011135,1907,4095,3484
7.83945623299951,2261,4095,4095
7.842150404998392,2434,4095,4095
7.84484807699846,1917,976,2742
7.847541498998908,2480,4095,4095
7.850232671000413,2022,4095,3653
7.852923302001727,2055,4095,4095
7.8556157240018365,966,3283,3153
7.858307063001121,1403,4095,4095
7.860998485000891,1695,4095,4095
7.863693489998695,2055,4095,4095
7.866386870999122,2288,4095,4095
7.869077000999823,1904,4095,3429
7.8717735479986,2271,4095,4095
7.87446822000129,2037,2848,2958
7.877160350999475,2289,4095,4095
7.879854105998675,2434,4095,4095
7.882546027998615,2368,4095,4095
7.885234784000204,1920,4095,3627
7.888038330998825,2484,4095,4095
7.8907365029990615,2060,4095,3482
7.89343425900006,2645,4095,4095
7.896127555999556,1923,4095,3546
7.898823520001315,1878,4095,3683
7.901518149999902,2432,4095,4095
7.904209113999968,2343,4095,4095
7.906904120001855,2477,4095,4095
7.9096003330014355,1968,4095,3477
7.912293672001397,2158,3840,3951
7.914988844000618,1970,434,2544
7.9176840580003045,2203,4095,4095
7.9203791889995045,2419,4095,4095
7.9230760270002065,2384,4095,4095
7.925770324000041,2302,4095,4095
7.928462288000446,2489,4095,4095
7.931158751998737,2078,4095,3336
7.93385334100094,2612,4095,4095
7.93654597099885,1911,4095,4095
7.939241935000609,2265,4095,4095
7.94193598199854,2433,4095,4095
7.94462690400178,1919,383,2531
7.947320367999055,2481,4095,4095
7.950013289999333,2005,4095,3452
7.952707837001071,2113,3435,3484
7.955404134998389,1951,2446,3085
7.9580958480000845,1879,4095,4095
7.9607885209989036,2425,4095,4095
7.9634842759987805,2448,4095,4095
7.966179781000392,2465,4095,4095
7.96887137000158,2118,4095,4095
7.971568750999722,2099,3793,3198
7.974262630999874,2559,4095,4095
7.976948177998565,2010,4095,4095
7.979642309001065,2400,4095,4095
7.982339730999229,2388,4095,4095
7.985032903001411,1917,3071,3321
7.987731533001352,2480,4095,4095
7.990427164000721,2038,3782,3295
7.99311925299844,2678,4095,4095
7.99581359199874,1936,4077,3413
7.998509764001938,1881,3051,3117
8.001202351999382,2431,4095,4095
8.003908024998964,2459,4095,4095
8.006605321999814,2475,4095,4095
8.009327368999948,1943,4095,3447
8.012020623998978,2688,4095,4095
8.014766046999284,1985,927,2541
8.017531010998937,2031,4095,4095
8.020238474000507,2421,4095,4095
8.022934813001484,2447,4095,4095
8.02563102700151,2346,4095,4095
8.02832507399944,2384,4095,4095
8.031021080001665,2075,3501,2983
8.033717793001415,2624,4095,4095
8.036411174001842,2016,4095,4095
8.039107679000153,1974,4095,4095
8.041801685001701,2519,4095,4095
8.044494857000245,2240,819,2525
8.047189237000566,3297,4095,4095
8.04988136799875,2803,4095,3638
8.052565915000741,3131,3056,3359
8.055258169999433,2707,879,2627
8.057951593000325,2403,4095,4095
8.060644430999673,2635,4095,4095
8.063336478000565,2497,4095,4095
8.066028067001753,2403,4095,4095
8.068720489001862,2234,4095,4095
8.071417453000322,2069,3163,2910
8.074114874998486,2559,4095,4095
8.076808131001599,1956,4095,4095
8.079503761000524,2337,4095,4095
8.08220159999837,2387,4095,4095
8.084894521998649,1921,2133,3039
8.087590360999457,2475,4095,4095
8.09028565799963,2026,3398,3242
8.092976621999696,2539,4095,4095
8.095670793998579,1931,2898,3182
8.09836463299871,2376,4095,4095
8.101057096999284,2417,4095,4095
8.103751685001043,2448,4095,4095
8.106447565998678,2471,4095,4095
8.10914073800086,1927,4095,3499
8.11376928900063,2559,4095,4095
8.116470753000613,1914,4095,3572
8.119170091998967,2107,4095,4095
8.121868180998717,2432,4095,4095
8.124560811000265,1918,432,2480
8.127258566000819,2478,4095,4095
8.129956572000083,2000,3290,3207
8.132650868999917,2131,3291,3440
8.135346874998504,1953,2370,3037
8.138042296999629,2298,4095,4095
8.14073405200179,2421,4095,4095
8.143428141000186,2449,4095,4095
8.146138855001482,2474,4095,4095
8.148868693999248,2047,4095,4095
8.151585906998662,2098,3739,2929
8.154291162998561,2195,4095,4005
8.156989959999919,1897,4095,2897
8.159683631998632,2383,4095,4095
8.162379053999757,2340,4095,4095
8.165073935000692,1919,3024,3322
8.16776735700114,2480,4095,4095
8.170464112001355,2037,4095,3474
8.173158117999265,2672,4095,4095
8.175853289998486,1935,3419,3223
8.178553587000351,1882,2681,3154
8.181248801000038,2429,4095,4095
8.183976055999665,2453,4095,4095
8.186673812000663,2477,4095,4095
8.189366441998573,1949,3547,3344
8.192060864999803,2631,4095,4095
8.194772537000972,1984,294,2433
8.197489209000196,1926,4095,4095
8.200184214001638,2417,4095,4095
8.202873261001514,2446,4095,4095
8.205568017001497,2047,4095,4095
8.208264396998857,2469,4095,4095
8.210966153001209,2073,4095,3184
8.213665032999415,2626,4095,4095
8.216360997001175,1919,4095,3437
8.21910208600093,2004,4095,4095
8.22180917500009,2431,4095,4095
8.224502971999755,1917,374,2527
8.22719806099849,2479,4095,4095
8.229892691000714,2000,2990,3154
8.232584697001585,2096,3311,3393
8.235282076999283,1055,2272,2960
8.237973833001888,913,4095,4095
8.240668337999523,1689,4095,4095
8.243366135000542,2032,4095,4095
8.24606326600042,2229,4095,4095
8.248755313001311,1909,4095,3559
8.251453151999158,2114,4095,2535
8.254147531999479,2615,4095,4095
8.256833371000539,2064,4095,4095
8.259525376000965,2371,4095,4095
8.262219464999362,2409,4095,4095
8.264912512000592,1920,2320,3151
8.267608183999982,2483,4095,4095
8.270305731999542,2031,4095,3376
8.273001903999102,2607,4095,4095
8.275700575999508,1936,2867,3134
8.278396998000972,2307,4095,4095
8.281089752999833,2429,4095,4095
8.28378559200064,2451,4095,4095
8.286482806001004,2476,4095,4095
8.289174519999506,1941,4095,3456
8.291871691999404,2638,4095,4095
8.29456803100038,1995,1563,2646
8.297260744999221,1941,4095,4095
8.299986417001492,2416,4095,4095
8.302683464000438,2382,4095,4095
8.305384385999787,1928,4095,4095
8.308080642000277,2484,4095,4095
8.310779188999732,2065,4089,3179
8.31347556900073,2639,4095,4095
8.31616170000052,1918,4095,3359
8.318861913001456,1872,4095,4095
8.321556293998583,2433,4095,4095
8.32424759100104,1913,2014,2694
8.326942512998357,2475,4095,4095
8.329638185001386,1979,3670,3344
8.332331107001664,2119,3062,3155
8.335024905001774,1968,967,2677
8.3377213269996,1881,4095,2199
8.340415164999285,2422,4095,4095
8.343111463000241,2448,4095,4095
8.345808467998722,2407,4095,4095
8.348505139998451,2318,4095,4095
8.351198771000782,2090,4095,3838
8.353894526000659,2601,4095,4095
8.35658119800064,1909,4095,3215
8.359274579001067,2119,4095,4095
8.361968917000922,2416,4095,4095
8.3646660480008,1919,558,2608
8.367366137001227,2482,4095,4095
8.370064184000512,2014,3185,3207
8.372756813998421,2114,4095,4095
8.37545215299906,1947,2325,2993
8.378145449998556,2013,4095,4095
8.38083824700152,2423,4095,4095
8.383534003001841,2448,4095,4095
8.386229507999815,2475,4095,4095
8.388921763998951,1941,4095,3583
8.391616060998786,2099,4095,4095
8.394309691000672,2010,3569,3131
8.397001114000886,1895,4095,2625
8.399693536000996,2384,4095,4095
8.402398623999034,2386,4095,4095
8.40509171300073,1920,3127,3328
8.407787010000902,2483,4095,4095
8.410480266000377,2043,3218,3033
8.41317393799909,2663,4095,4095
8.41587010999865,1930,4095,4095
8.418563907001953,1872,2693,3138
8.421323580001626,2478,4095,4095
8.42402950199903,2768,4095,4095
8.426728048998484,3184,4095,4095
8.429425013000582,2614,2832,3139
8.432117684998957,3743,4095,4095
8.434814856998855,2733,550,2589
8.437510695999663,2869,4095,4095
8.440203243000724,2651,4095,4095
8.442898040000728,2506,4095,4095
8.445592962001683,1993,4095,4095
8.448281592998683,2303,4095,4095
8.450976097999956,2045,3007,2855
8.4536692699985,2599,4095,4095
8.456355025999073,1905,4095,3390
8.459051156001806,2077,4095,4095
8.46174674500071,2433,4095,4095
8.464442167001835,1920,907,2502
8.467138505999174,2470,4095,4095
8.46983180299867,1998,3760,3344
8.472522725001909,2117,3216,3371
8.47521564699855,1957,1931,2878
8.477908736000245,1879,4095,2452
8.480601907998789,2421,4095,4095
8.483296539001458,2449,4095,4095
8.485991252000531,2435,4095,4095
8.488686216001952,1939,4095,3621
8.491382137999608,2094,2611,2299
8.494077102001029,2584,4095,4095
8.496772399001202,1904,4095,3435
8.499466029999894,2352,4095,4095
8.502163242999814,2370,4095,4095
8.504855666000367,1920,2384,3141
8.507550420999905,2455,4095,4095
8.51024367699938,2035,4095,3777
8.512932932000695,2455,4095,4095
8.515627895998477,1936,3301,3241
8.518322068000998,2256,4095,4095
8.521014156998717,2425,4095,4095
8.523707578999165,2453,4095,4095
8.526400709000882,2423,4095,4095
8.529093922999891,1941,3621,3329
8.531789345001016,2514,4095,4095
8.53448493399992,1995,2033,2784
8.537176230998739,2224,4095,4095
8.539869028001704,2429,4095,4095
8.542564617000608,2304,4095,4095
8.545256288998644,1923,4095,3685
8.547976960999222,2407,4095,4095
8.55070813400016,2064,3474,3079
8.553414139001688,2646,4095,4095
8.556102645001374,1920,4095,3441
8.558797525001864,1882,4095,3787
8.561492488999647,2431,4095,4095
8.564184119000856,1918,3315,3525
8.566879165999126,2460,4095,4095
8.569573838998622,1978,3578,3293
8.572264302001713,2118,3478,3135
8.574960140998883,1971,505,2553
8.577653937998548,1883,4095,2206
8.58034548499927,2419,4095,4095
8.583039033001114,2438,4095,4095
8.585733579999214,2288,4095,4095
8.588424293000571,2336,4095,4095
8.591119715998502,2083,2912,2871
8.59381905400005,2607,4095,4095
8.596516893001535,1910,3984,3116
8.599215065001772,2167,4095,4095
8.601911154000845,2351,4095,4095
8.604602867999347,1915,353,2553
8.60729849800191,2448,4095,4095
8.609992587000306,2007,3060,3152
8.612686134001706,2078,4095,4095
8.615380014998664,1001,2160,2947
8.618075269998371,1177,4095,4095
8.620767026000976,1698,4095,4095
8.623494572999334,2046,4095,4095
8.626205661999848,2268,4095,4095
8.628894459001458,1917,4095,3504
8.631591380999453,2117,4095,4095
8.634289595000155,2035,3733,3152
8.636981391999143,1922,4095,4095
8.639676522001537,2437,4095,4095
8.642373319999024,2329,4095,4095
8.645067699999345,1920,3345,3360
8.647762496999349,2474,4095,4095
8.6504571689984,2035,2433,2806
8.6531515079987,2654,4095,4095
8.655845222001517,1920,2885,3089
8.658533893998538,1872,2694,3156
8.661220732999936,2422,4095,4095
8.663943947001826,2450,4095,4095
8.666637451999122,2453,4095,4095
8.669353416000376,1955,3299,3264
8.672045587998582,2447,4095,4095
8.674736844001018,1980,356,2496
8.677431473999604,2285,4095,4095
8.6801245630013,2424,4095,4095
8.682821067999612,2445,4095,4095
8.685517156998685,2098,4095,4095
8.688211536999006,2470,4095,4095
8.69091100100195,2079,3023,2896
8.693611214999692,2625,4095,4095
8.696304428998701,1911,4095,3369
8.699000476000947,1957,4095,4095
8.701695815001585,2435,4095,4095
8.704383153999515,1918,1034,2521
8.707076201000746,2479,4095,4095
8.709772289999819,1994,4095,3719
8.712465086999146,2121,2960,3297
8.715162258999044,1957,1299,2736
8.717858181000338,1883,3824,2112
8.720553227998607,2421,4095,4095
8.723250399998506,2448,4095,4095
8.725945696998679,2469,4095,4095
8.72863720299938,1993,4095,4095
8.731332041999849,2095,3163,2689
8.734026754998922,2585,4095,4095
8.736720635999518,1903,4095,3276
8.739414725001552,2298,4095,4095
8.742108938000456,2374,4095,4095
8.744801944001665,1919,1961,3028
8.747497991000273,2480,4095,4095
8.750189997001144,2027,3957,3366
8.752882626999053,2381,4095,4095
8.75557442400168,1939,2859,3093
8.758267012999568,2357,4095,4095
8.760961767999106,2423,4095,4095
8.763655274000484,2449,4095,4095
8.766351320999092,2448,4095,4095
8.76904261800155,1933,4095,3516
8.771736206999776,2256,4095,4095
8.774431920999632,1995,2062,2779
8.777122883999255,1891,4095,2415
8.779817681999702,2416,4095,4095
8.782556270998612,2304,4095,4095
8.785251233999588,1920,4095,4095
8.78799053200055,2453,4095,4095
8.790687787000934,2062,2542,2785
8.79338354200081,2640,4095,4095
8.79607734000092,1919,3210,3046
8.798772844998894,1889,4016,3545
8.801469558999088,2527,4095,4095
8.80416323100144,2239,2605,2837
8.806860320000851,3297,4095,4095
8.809554742001637,2686,3287,3245
8.812248288999399,3063,4095,3958
8.814944211000693,2694,1071,2656
8.817643549999048,2315,4095,2145
8.820339639001759,2635,4095,4095
8.8230382690017,2495,4095,4095
8.825763025000924,2318,4095,4095
8.828467030001775,2030,4095,4095
8.831165536001208,2059,4095,3010
8.833861208000599,2559,4095,4095
8.836554837998847,1902,4095,3327
8.839252802001283,2305,4095,4095
8.8419477239986,2401,4095,4095
8.844642438001756,1920,1234,2805
8.84733931899973,2480,4095,4095
8.850038157001109,2019,3184,3189
8.852733830000943,2112,4095,4095
8.855426876998536,1945,2550,3033
8.858120965000126,2304,4095,4095
8.86081288800051,2427,4095,4095
8.86350535100064,2448,4095,4095
8.866202397999587,2447,4095,4095
8.868898070999421,1942,4095,3495
8.871596409000631,2098,4095,4095
8.874294289998943,2204,4095,4090
8.876988254000025,1900,4095,2814
8.879683800998464,2304,4095,4095
8.882381306000752,2255,4095,4095
8.885075687001518,1918,3763,3509
8.887770901001204,2430,4095,4095
8.890467239001737,2047,2311,2736
8.89316041100028,2656,4095,4095
8.89585733399872,1933,4095,3790
8.898554171999422,1877,2962,3280
8.901246178000292,2427,4095,4095
8.903973183001654,2454,4095,4095
8.906670563999796,2475,4095,4095
8.909365277999314,1959,3402,3308
8.912059032998513,2559,4095,4095
8.914757246999216,1974,298,2480
8.917450794000615,1887,4095,2198
8.920144924999477,2418,4095,4095
8.922838597001828,2445,4095,4095
8.925533352001366,2096,4095,4095
8.928224107999995,2480,4095,4095
8.930918071000633,2075,3358,3013
8.933615785001166,2619,4095,4095
8.936307873998885,1919,4095,3382
8.939002338000137,2166,4095,4095
8.941695843001071,2432,4095,4095
8.944389389998832,1918,691,2481
8.947087396001734,2478,4095,4095
8.949788525998883,1995,4095,3485
8.952488865001214,2128,2942,3306
8.955183496000245,1955,1397,2735
8.957874209001602,1879,2758,1917
8.960566507001204,2426,4095,4095
8.96325659500144,2447,4095,4095
8.965948683999159,2387,4095,4095
8.968639773000177,1998,4095,4095
8.971337028000562,2093,3242,2693
8.974030909001158,2559,4095,4095
8.976726248001796,1904,4095,3339
8.979421710999304,2360,4095,4095
8.982115759001317,2380,4095,4095
8.984805430998676,1917,3114,3299
8.98749943599978,2445,4095,4095
8.990193732999614,2032,3711,3322
8.992883530001563,2403,4095,4095
8.99557761899996,943,3133,3131
8.998271290998673,1143,3765,3803
9.000963337999565,1713,4095,4095
9.003658802001155,2068,4095,4095
9.006352348998917,2295,4095,4095
9.009044229998835,2338,4095,4095
9.011739943998691,2595,4095,4095
9.014432948999456,2029,2053,2793
9.01717016299881,1915,4095,2320
9.01991346000068,2437,4095,4095
9.022611381999013,2343,4095,4095
9.025335887999972,1927,4095,4095
9.028059809999831,2455,4095,4095
9.03077035699971,2066,3277,3044
9.033468571000412,2626,4095,4095
9.036164242999803,1914,4095,3203
9.038859039999807,1879,4095,4095
9.041557212000043,2435,4095,4095
9.044251635001274,1917,1762,2672
9.046945098001743,2475,4095,4095
9.049640646000626,1984,3856,3347
9.052333775998704,2116,2752,3167
9.05502740600059,1966,1618,2832
9.057719994998479,1885,4095,3834
9.060411751001084,2425,4095,4095
9.063104090000706,2447,4095,4095
9.065794137000921,2304,4095,4095
9.068486266998661,2258,4095,4095
9.07118110599913,2090,3445,2909
9.073876195001503,2590,4095,4095
9.076569617001951,1905,4095,4095
9.079266747001384,2311,4095,4095
9.081961836000119,2409,4095,4095
9.084652716999699,1919,1616,2939
9.087348639000993,2474,4095,4095
9.090043685999262,2010,2695,3071
9.09273414999916,2110,4095,4095
9.09542882200185,1949,2179,2944
9.098122285999125,2426,4095,4095
9.100813748998917,2429,4095,4095
9.103511713001353,2451,4095,4095
9.106208927001717,2460,4095,4095
9.108901015999436,1941,4095,3649
9.11159581299944,2098,4095,4095
9.114291567999317,2001,2626,2886
9.11698207399968,1899,4095,4095
9.119676538000931,2416,4095,4095
9.122372251000343,2376,4095,4095
9.125064922998718,1920,4095,4095
9.12775784599944,2438,4095,4095
9.130453183999634,2054,2873,2922
9.13314360699951,2657,4095,4095
9.135837403999176,1926,4095,3521
9.138533451001422,1883,3123,3264
9.141229330998613,2431,4095,4095
9.143951502999698,2450,4095,4095
9.146649217000231,2478,4095,4095
9.149366222998651,1959,3053,3221
9.152059644999099,2443,4095,4095
9.15478777500175,1975,579,2559
9.1575151979996,1888,4095,3790
9.160207952998462,2419,4095,4095
9.162899416998698,2442,4095,4095
9.165589921998617,2285,4095,4095
9.168282178001391,2405,4095,4095
9.170979808000993,2081,3378,2977
9.173675771999115,2611,4095,4095
9.176369486001931,1909,4095,3479
9.179064990999905,2226,4095,4095
9.181760579998809,2486,4095,4095
9.184452543999214,2150,367,2465
9.187147423999704,2897,4095,4095
9.189842305000639,2559,4095,4095
9.192535727001086,2858,2834,3264
9.195228356998996,2525,2832,3104
9.197923363000882,2222,3663,2377
9.2006174929993,2594,4095,4095
9.203315540999029,2495,4095,4095
9.206011629001296,2434,4095,4095
9.208703510001214,2101,4095,4095
9.211400348998723,2074,3218,2880
9.214095479001116,2461,4095,4095
9.216788276000443,1897,4095,4095
9.219484239998565,2399,4095,4095
9.222178287000133,2349,4095,4095
9.224869083998783,1923,2864,3275
9.227565131001029,2481,4095,4095
9.23029684499852,2034,3693,3181
9.233002559001761,2671,4095,4095
9.235699190001469,1936,3776,3373
9.238396320000902,1879,2693,3146
9.241087450001942,2432,4095,4095
9.243782623001607,2453,4095,4095
9.246478085999115,2480,4095,4095
9.249170259001403,1949,3094,3184
9.251865014000941,2597,4095,4095
9.254559477998555,1984,431,2445
9.25725144199896,1897,4095,2225
9.260019114000897,2429,4095,4095
9.262712619001832,2449,4095,4095
9.265405750000355,1927,4095,4095
9.268100921999576,2291,4095,4095
9.270794552001462,2062,3055,2877
9.27349034999861,2613,4095,4095
9.276182522000454,2322,4095,4095
9.278879151999718,1913,4095,4095
9.28157382399877,2431,4095,4095
9.284266538001248,1913,2735,2915
9.286962918999052,2323,4095,4095
9.289656924000155,2269,4095,4095
9.292349846000434,2121,2790,3167
9.29504476800139,1936,1943,2903
9.297742148999532,1886,4095,2368
9.300436279001588,2427,4095,4095
9.303131785000005,2433,4095,4095
9.305826997999247,2389,4095,4095
9.308517712001048,2208,4095,4095
9.311213384000439,2091,3131,2798
9.313908514999639,2592,4095,4095
9.31660056200053,1909,4095,3280
9.319295984001656,2349,4095,4095
9.321992405999481,2384,4095,4095
9.32468420299847,1918,2225,3090
9.327379709000525,2480,4095,4095
9.330076213998836,2023,3611,3299
9.332771052999306,2299,4095,4095
9.335465266998654,1938,2874,3071
9.338170188999356,2336,4095,4095
9.340865111000312,2423,4095,4095
9.343562742000358,2454,4095,4095
9.34625712200068,2467,4095,4095
9.348949293998885,1940,3945,3360
9.351644007998402,2207,4095,4095
9.354340429999866,1999,1074,2543
9.357032226998854,1893,4095,2256
9.359725774000253,2423,4095,4095
9.362425112998608,2318,4095,4095
9.3651179519984,1924,3850,3481
9.36781391600016,2480,4095,4095
9.37050879600065,2054,3355,3185
9.373201426999003,2330,4095,4095
9.375906723998924,880,3840,3197
9.378604478999478,894,4095,3632
9.381329152001854,1758,4095,4095
9.38402265699915,1975,4095,4095
9.386718453999492,2349,4095,4095
9.389415293000638,1955,3876,3426
9.39211159000115,2141,3661,3178
9.394809179000731,2003,801,2613
9.397503808999318,1910,4095,2163
9.400197522998496,2434,4095,4095
9.402892237001652,2452,4095,4095
9.405587075998483,2020,4095,4095
9.408280706000369,2453,4095,4095
9.410976087001472,2080,4095,3383
9.413672050999594,2604,4095,4095
9.416364513999724,1914,4095,3249
9.419060560998332,2228,4095,4095
9.421757942000113,2435,4095,4095
9.424451906001195,1920,823,2731
9.427150870000332,2481,4095,4095
9.429848083000252,2004,3094,3190
9.432578256000852,2112,4095,3857
9.435285011000815,1946,2628,3056
9.437982683000882,1883,4095,4095
9.44067498000004,2429,4095,4095
9.443370985998627,2454,4095,4095
9.446065158001147,2449,4095,4095
9.44875770499857,1941,4095,3538
9.451452794000943,2096,4095,4095
9.454147633001412,2014,3983,3801
9.456845638000232,1898,4095,3788
9.459540268999262,2423,4095,4095
9.462234774000535,2355,4095,4095
9.464921446000517,1921,3602,3434
9.467616660000203,2480,4095,4095
9.470311499000672,2041,3863,3318
9.473005338000803,2659,4095,4095
9.475700467999559,1930,4034,3329
9.47839493200081,1882,2623,3156
9.481085311999777,2430,4095,4095
9.483780651000416,2459,4095,4095
9.48647607300154,2477,4095,4095
9.48917649500072,1887,3923,3434
9.491874084000301,2683,4095,4095
9.49456759000168,1983,459,2434
9.49726005300181,1887,3257,1870
9.499975016999088,2419,4095,4095
9.502671313999599,2443,4095,4095
9.505367278001358,2387,4095,4095
9.508059824998782,2483,4095,4095
9.510754621998785,2067,3143,2992
9.51345192000008,2625,4095,4095
9.516142967000633,1919,4095,3398
9.518837764000637,1878,4095,4095
9.521535019001021,2432,4095,4095
9.524227858000813,1918,2816,2923
9.526923155000986,2470,4095,4095
9.529619201999594,2384,4095,4095
9.53230987400093,2116,2789,3163
9.535006047000934,1958,2195,2995
9.53770101000191,1921,4095,4095
9.54039259899946,2421,4095,4095
9.543087688001833,2448,4095,4095
9.54578444299841,2023,4095,4095
9.548474990999239,1940,4095,3438
9.551174662999983,2091,4095,4095
9.553873543001828,2591,4095,4095
9.557367425000848,2311,4095,4095
9.560082596999564,2295,4095,4095
9.56277839500035,2551,4095,4095
9.565471732999868,2544,4095,4095
9.568158363999828,3007,4095,4095
9.570859327999642,2807,2975,2949
9.573556666000513,3583,4095,4095
9.576247838998825,2408,4095,3420
9.578943676999188,2507,4095,4095
9.581641100001434,2542,4095,4095
9.584334063001734,1936,355,2501
9.587034610001865,2457,4095,4095
9.589730407999014,1975,3995,3399
9.592423163001513,2098,3498,3454
9.59513091899862,1939,2518,3071
9.597829966001882,1872,4095,4095
9.600524263001716,2419,4095,4095
9.60321956000189,2449,4095,4095
9.605915356998594,2436,4095,4095
9.608606945999782,1942,4095,3602
9.611300700998981,2095,3813,2548
9.61399474800055,2478,4095,4095
9.61668804600049,1903,4095,2779
9.619387593000283,2362,4095,4095
9.622084348000499,2329,4095,4095
9.624777561999508,1920,2677,3193
9.62747256700095,2479,4095,4095
9.630165114998817,2032,4095,3371
9.632896827999502,2557,4095,4095
9.635603751001327,1935,2945,3125
9.63829854800133,1879,2864,3123
9.640989970001101,2429,4095,4095
9.643683850001253,2449,4095,4095
9.646377647000918,2470,4095,4095
9.649072028001683,1943,3191,3248
9.651771117001772,2672,4095,4095
9.654465580999386,1990,562,2477
9.65715937799905,2219,4095,4095
9.659854174999055,2421,4095,4095
9.66254613899946,2447,4095,4095
9.665236352000647,1923,4095,4095
9.667960316000972,2485,4095,4095
9.670652446999156,2069,3159,3025
9.673369660999015,2635,4095,4095
9.676061499001662,1907,4095,3423
9.67875521300084,1876,4095,4095
9.681454677000147,2434,4095,4095
9.684142974001588,1913,1632,2624
9.68683764600064,2480,4095,4095
9.689535651999904,1982,3063,3169
9.692229074000352,2115,2832,3179
9.694923620998452,1963,1584,2815
9.697620626000571,1883,4095,3771
9.700311507000151,2419,4095,4095
9.70300688700081,2449,4095,4095
9.705699933998403,2290,4095,4095
9.708394272998703,2445,4095,4095
9.711090486998728,2091,3870,3184
9.713788826000382,2598,4095,4095
9.716482497999095,2237,4095,4095
9.71917658700113,2307,4095,4095
9.721873759001028,2442,4095,4095
9.724568598001497,1920,881,2707
9.72726522800076,2479,4095,4095
9.729959274998691,2018,2702,3043
9.732652947001043,2112,4095,4095
9.735348494999926,1939,3430,3311
9.738043000001198,2398,4095,4095
9.740735588999087,2425,4095,4095
9.74343121900165,2451,4095,4095
9.746129140999983,2448,4095,4095
9.748822438999923,1941,4095,3523
9.751520568999695,2101,4095,4095
9.754216950001137,1284,2414,2847
9.756909121999342,819,4095,2337
