time,y1,y2,y3
0.005915011999604758,368,4095,4095
0.008620560001872946,1482,4095,4095
0.011314064999169204,1801,4095,4095
0.01400619500054745,1749,4095,4095
0.016696492999471957,1499,4095,4095
0.01938912300101947,535,4095,4095
0.022083004001615336,624,4095,4095
0.02477330100009567,557,4095,4095
0.027466681000078097,4095,4095,4095
0.030161728001985466,4095,4095,4095
0.03285627500008559,4095,4095,4095
0.03554878100112546,4095,4095,4095
0.03824524499941617,2641,4095,4095
0.04093579199980013,1379,4095,4095
0.043630005999148125,576,4095,4095
0.04632142799891881,2102,4095,4095
0.04901310000059311,4095,2521,2781
0.05170910499873571,4095,4095,4095
0.05440261100011412,4095,4095,4095
0.05709624100200017,3450,4095,4095
0.059790287999931024,1840,4095,4095
0.06248525200135191,817,4095,4095
0.0651794660006999,767,4095,4095
0.0678765550001117,4095,4095,4095
0.07056997700055945,4095,4095,4095
0.07326302400178974,4095,4095,4095
0.07595936299912864,4095,4095,4095
0.07865549300186103,2480,4095,4095
0.08134479000000283,1200,4095,4095
0.08403754599930835,476,4095,4095
0.08673059300053865,2365,2512,3159
0.08942151500014006,4095,1178,2768
0.09211493700058782,4095,4095,4095
0.09480981800152222,4095,4095,4095
0.0974994060015888,3697,4095,4095
0.10019316200123285,1951,4095,4095
0.10288525099895196,819,4095,4095
0.10559067299982416,1290,4095,4095
0.10828863699862268,4095,4095,4095
0.11098501699962071,4095,4095,4095
0.11367568900095648,4095,4095,4095
0.11641606999910437,4095,4095,4095
0.11911053400035598,2352,1904,3084
0.12180628900023294,1456,4095,4095
0.12449783600095543,627,4095,4095
0.12719159200059948,4095,4095,4095
0.1298892220002017,4095,4095,3695
0.13258310300079756,4095,4095,4095
0.1352766909985803,4095,4095,4095
0.1379708220010798,4095,4095,4095
0.14066128600097727,2306,4095,4095
0.1433546660009597,1006,4095,4095
0.14604687999963062,2187,4095,4095
0.1487404690014955,4095,4095,4095
0.15143343299860135,4095,4095,4095
0.15412814600131242,4095,4095,4095
0.15681811000104062,4095,4095,4095
0.15951174099973287,3024,4095,4095
0.16220841299946187,1602,4095,4095
0.16490112700194004,974,4095,4095
0.16759371499938425,4095,4095,4095
0.17028751199904946,4095,4095,4095
0.17297918500116793,4095,3308,3553
0.17567181499907747,4095,4095,4095
0.17836373699901742,4095,4095,4095
0.18105790900153806,2158,4095,4095
0.1837518309985171,881,4095,4095
0.1864465869984997,2859,4095,4095
0.18913738400078728,4095,1734,2608
0.19186822299889172,4095,4095,4095
0.19457527000122354,4095,4095,4095
0.19726531700143823,4095,4095,4095
0.19995748899964383,2704,4095,4095
0.20265091100009158,1199,4095,4095
0.2053399590004119,1107,4095,4095
0.20803038099984406,4095,4095,4095
0.2107200530008413,4095,4095,4095
0.2134260999991966,4095,4095,4095
0.2161168140009977,4095,4095,4095
0.21880656899884343,2849,3579,3414
0.22149569999965024,1533,4095,4095
0.22418766299961135,464,4095,4095
0.22688416899836739,2601,2727,3231
0.2295769240008667,4095,1695,2939
0.23227176300133578,4095,4095,4095
0.23496410200095852,4095,4095,4095
0.2376562739991641,4079,4095,4095
0.24038390499845264,1952,4095,4095
0.24307874299847754,543,4095,4095
0.2457726239990734,1199,4095,4095
0.24846525400062092,4095,4095,4095
0.2511587600019993,4095,4095,4095
0.25385309899866115,4095,4095,4095
0.2565488539985381,4095,4095,4095
0.25924627600034,1951,2486,3218
0.2619389069986937,897,4095,4095
0.26462974500100245,453,4095,4095
0.2673213759990176,4095,4095,4095
0.27001529799963464,4095,4095,3755
0.27270397000029334,4095,4095,4095
0.27539705900198896,4095,4095,4095
0.27809068900023703,3440,4095,4095
0.2807804869989923,1451,4095,4095
0.283474075000413,448,4095,4095
0.28616666400193935,1650,4095,4095
0.28886396099915146,4095,4095,4095
0.29156400799911353,4095,4095,4095
0.2942603470000904,4095,4095,4095
0.2969533110008342,4095,4095,4095
0.299646733001282,1834,4095,4095
0.3023364889995719,480,4095,4095
0.3050264519988559,469,4095,4095
0.3077182500019262,4095,4095,4095
0.3104085880004277,4095,4095,4095
0.3130985520001559,4095,2658,3120
0.31579230799979996,4095,4095,4095
0.31848681300107273,3443,4095,4095
0.32117977700181655,1727,4095,4095
0.3238751159988169,774,4095,4095
0.32657087099869386,3119,4095,4095
0.32926221000161604,4095,1050,2512
0.3319542149984045,4095,4095,4095
0.33464592900054413,4095,4095,4095
0.33733760099858046,4095,4095,4095
0.34003098199900705,4095,4095,4095
0.342725196001993,3483,4095,4095
0.34541782599990256,2707,4095,4095
0.3481118730014714,4095,4095,4095
0.3508058789993811,4095,4095,4095
0.353508509000676,4095,4095,4095
0.3562068060018646,4095,4095,4095
0.35890222799935145,1350,3238,3375
0.36159444200166035,441,4095,4095
0.3642882810017909,434,4095,4095
0.3669835360014986,1447,2734,3197
0.3696754590018827,4095,1793,2922
0.3724028389988234,4095,4095,4095
0.37509813599899644,3770,4095,4095
0.3777943079985562,1700,4095,4095
0.38048523000179557,446,4095,4095
0.38318144400182064,436,4095,4095
0.3858801999995194,560,4095,4095
0.38857595499939634,4095,4095,4095
0.3912714610014518,4095,4095,4095
0.3939990079998097,4095,4095,4095
0.39670613799899,3456,4095,4095
0.3994004349988245,921,3189,3477
0.40209323299859534,443,4095,4095
0.4047836960016866,432,4095,4095
0.40747870199993486,3664,4095,4095
0.4101684160013974,4095,4095,4095
0.41285796300144284,4095,4095,4095
0.4155537180013198,4095,4095,4095
0.41824959899895475,2559,4095,4095
0.42094360400005826,874,4095,4095
0.42363890100023127,441,4095,4095
0.4263347400010389,1511,4095,4095
0.4290260790003231,4095,4095,4095
0.43172195900115184,4095,4095,4095
0.43441458999950555,4095,4095,4095
0.43710546999864164,3623,4095,4095
0.43980005900084507,1531,4095,4095
0.4424926899991988,450,4095,4095
0.44517702799930703,438,4095,4095
0.44787020000148914,4095,4095,4095
0.45056941399889183,4095,4095,4095
0.4532641279984091,4095,2706,3195
0.45595884200156434,4095,4095,4095
0.45865243099979125,2425,4095,4095
0.4613425610004924,770,4095,4095
0.464036108001892,437,4095,4095
0.46672773899990716,2032,4095,3985
0.46941870199952973,4095,511,2469
0.47211616600179696,4095,4095,4095
0.4748100050019275,4095,4095,4095
0.4774994270010211,3518,4095,4095
0.4801902239996707,1583,4095,4095
0.4828843959985534,448,4095,4095
0.4855774019997625,592,4095,4095
0.4882712819999142,4095,4095,4095
0.490964537999389,4095,4095,4095
0.49365516800025944,4095,4095,4095
0.49638159000096493,4095,4095,4095
0.49907667899969965,1778,1579,2544
0.5017679759985185,725,4095,4095
0.5044577320004464,443,4095,4095
0.5071494039984827,2284,3492,3659
0.5101899930014042,4095,2515,3113
0.5128970410005422,4095,4095,4095
0.5155933380010538,4095,4095,4095
0.5182868849988154,2896,4095,4095
0.5209760990001087,1125,4095,4095
0.5236684789997526,439,4095,4095
0.5263583599989943,1533,4095,4095
0.5290459479983838,4095,4095,4095
0.5317349120014114,4095,4095,4095
0.5344247930006532,4095,4095,4095
0.5371131729989429,3731,4095,4095
0.5398014700003841,1574,4095,4095
0.5424883509986103,448,4095,4095
0.5451772310007073,434,4095,4095
0.5478715700010071,4095,4095,4095
0.5505612419983663,4095,4095,4095
0.5532494969993422,4095,2489,3119
0.5559387530011008,4095,4095,4095
0.5586266749996867,2332,4095,4095
0.5613133890001336,688,4095,4095
0.5640026860019134,437,4095,4095
0.5666916500013031,1853,4095,4095
0.56937836400175,4095,1203,2517
0.572068327001034,4095,4095,4095
0.5747567489997891,4095,4095,4095
0.5774452129990095,3285,4095,4095
0.5801365100014664,1286,4095,4095
0.5828265570016811,439,4095,4095
0.5855148549999285,425,4095,4095
0.5882026100007351,4095,4095,4095
0.5908907400007593,4095,4095,4095
0.5935783290005929,4095,4095,4095
0.5962808350013802,4014,4095,4095
0.5990093399996113,1852,4095,3879
0.601736095999513,462,4095,4095
0.6044329350006592,437,4095,4095
0.6071268980012974,1855,2873,3303
0.609818611999799,4095,1855,3024
0.6125107010011561,4095,4095,4095
0.6152067900002294,4095,4095,4095
0.617901419998816,2527,4095,4095
0.6205947589987773,830,4095,4095
0.6232894310014672,438,4095,4095
0.6259835620003287,655,4095,4095
0.6286873589997413,4095,4095,4095
0.6313855309999781,4095,4095,4095
0.6340844110018224,4095,4095,4095
0.6367762920017412,3424,4095,4095
0.6394711719985935,905,2431,3184
0.6421697190016857,439,4095,4095
0.6448645579985168,413,4095,4095
0.6475611890018627,3221,4095,4095
0.6502564440015703,4095,4095,3840
0.6529495750000933,4095,4095,4095
0.6556465799985745,4095,4095,4095
0.6583429189995513,2128,4095,4095
0.6610336740013736,534,4095,4095
0.6637281799994525,441,4095,4095
0.6664211850002175,1206,4095,4095
0.6691148159989098,4095,4095,4095
0.6719081129995175,4095,4095,4095
0.6746092440007487,4095,4095,4095
0.6773039990002871,2870,4095,4095
0.6800014209984511,1041,4095,4095
0.6826953019990469,441,4095,4095
0.6853870150007424,416,4095,4095
0.688081771000725,4095,4095,4095
0.6907794430007925,4095,4095,4095
0.6934724490020017,4095,3321,3452
0.69616687099915,3876,4095,4095
0.6988616259986884,1894,4095,4095
0.7015555069992843,461,4095,4095
0.7042469699990761,441,4095,4095
0.7069404339999892,1456,3312,3151
0.7096327729996119,4095,466,2559
0.7123544870009937,4095,4095,4095
0.7150511590007227,4095,4095,4095
0.7177684980015329,2721,4095,4095
0.7204626700004155,1008,4095,4095
0.7231575500009058,443,4095,4095
0.7258889309996448,528,4095,4095
0.7286123109988694,4095,4095,4095
0.7313205669997842,4095,4095,4095
0.7340115719998721,4095,4095,4095
0.7367030780005734,3547,4095,4095
0.7393946670017613,1099,977,2811
0.7420858799996495,446,4095,4095
0.7447751360014081,428,4095,4095
0.7474651830016228,2207,4095,4095
0.7501558139992994,4095,3548,3479
0.7528442360016925,4095,4095,4095
0.7555343659987557,4095,4095,4095
0.7582242470016354,2230,4095,4095
0.7609108770011517,576,4095,4095
0.7635995490018104,441,4095,4095
0.7662886799989792,827,4095,4095
0.7689782269990246,4095,4095,4095
0.771667940000043,4095,4095,4095
0.7743586959986715,4095,4095,4095
0.7770478259990341,2922,4095,4095
0.7797366650011099,591,4095,4095
0.782426295998448,438,4095,4095
0.7851109260009252,432,4095,4095
0.7877998069998284,3344,4095,4095
0.7904946449998533,4095,4095,4095
0.7931866090002586,4095,4095,4095
0.795876447999035,3807,4095,4095
0.7985920780010929,1827,4095,4095
0.8013032509988989,448,4095,4095
0.8039992980011448,433,4095,4095
0.8066943449994142,1357,4095,4095
0.809385934000602,4095,2639,2809
0.8120803970014094,4095,4095,4095
0.8147751110009267,4095,4095,4095
0.8174694500012265,2621,4095,4095
0.8201650390001305,909,4095,4095
0.8228591279985267,442,4095,4095
0.825550800000201,411,4095,4095
0.8282451390005008,4095,4095,4095
0.8309419360011816,4095,4095,4095
0.8336365659997682,4095,4095,3760
0.8363665299984859,3559,4095,4095
0.8390732020016003,1650,4095,4095
0.8417678740006522,448,4095,4095
0.8444607550009096,436,4095,4095
0.847155510000448,1641,2455,3179
0.8498515159990347,4095,1054,2779
0.8525434379989747,4095,4095,4095
0.8552366520016221,4095,4095,4095
0.8579295320014353,3974,4095,4095
0.8606212039994716,2308,4095,4095
0.8633161260004272,1302,4095,4095
0.8660112149991619,1758,4095,4095
0.8687065119993349,4095,4095,4095
0.8714019760009251,4095,4095,4095
0.8740981900009501,4095,4095,4095
0.8767903199986904,4095,4095,4095
0.8794857009997941,2704,1155,2862
0.8821800400000939,1242,4095,4095
0.884871836999082,430,4095,4095
0.8875676759998896,2448,4095,4095
0.8902632230019663,4095,3745,3501
0.8929541860015888,4095,4095,4095
0.8956496920000063,3328,4095,4095
0.8983458219991007,1211,4095,4095
0.9010406609995698,433,4095,4095
0.9037333330015827,431,4095,4095
0.9064280050006346,483,4095,4095
0.9091189280006802,4095,4095,4095
0.9118115579985897,4095,4095,4095
0.9145036890004121,4095,4095,4095
0.9171961520005425,2147,4095,4095
0.919890740999108,74,4095,4095
0.9225848300011421,439,4095,4095
0.9252762940013781,438,4095,4095
0.9279680489999009,3333,4095,4095
0.9306662210001377,4095,4095,4095
0.9333598100020026,4095,4095,3719
0.9360545660019852,3789,4095,4095
0.9387479460019676,1840,4095,4095
0.9414386179996654,454,4095,4095
0.9441309569992882,433,4095,4095
0.9468260040011955,1474,4095,4095
0.9495173430004797,4095,1769,2677
0.9522118070017314,4095,4095,4095
0.954905353999493,4095,4095,4095
0.957602942999074,2785,4095,4095
0.9602975730012986,1066,4095,4095
0.9629925789995468,443,4095,4095
0.9657139590017323,429,4095,4095
0.9684103389990923,4095,4095,4095
0.9711056369997095,4095,4095,4095
0.973801017000369,4095,4095,4095
0.9764919810004358,3763,4095,4095
0.9791874859984091,1731,4095,3760
0.9818828669995128,453,4095,4095
0.9845738309995795,441,4095,4095
0.9872698360013601,1647,2537,3215
0.9899601329998404,4095,1531,2887
0.9926514299986593,4095,4095,4095
0.995346519001032,4095,4095,4095
0.9980798159995175,2672,4095,4095
1.0008489470019413,999,4095,4095
1.0036095780014875,440,4095,4095
1.0063100830011535,813,4095,4095
1.0090032129992323,4095,4095,4095
1.0116971360002935,4095,4095,4095
1.0143883080017986,4095,4095,4095
1.0170802300017385,3527,4095,4095
1.0197782350005582,1125,3334,3530
1.0224749490007525,451,4095,4095
1.0251684959985141,437,4095,4095
1.0278638769996178,3427,4095,4095
1.0305603820015676,4095,4095,4095
1.033251887998631,4095,4095,4095
1.0359470180010248,4095,4095,4095
1.0386463989998447,2418,4095,4095
1.041340987001604,801,4095,4095
1.044033660000423,435,4095,4095
1.0467291649983963,1424,4095,4095
1.0494225449983787,4095,3714,3676
1.0521173429988266,4095,4095,4095
1.054809473000205,4095,4095,4095
1.0575003539997851,3379,4095,4095
1.06019519199981,1365,4095,4095
1.0628929890008294,448,4095,4095
1.0655874949989084,448,4095,4095
1.0682825420008157,4095,4095,4095
1.0709816310009046,4095,4095,4095
1.0736750950018177,4095,3203,3443
1.076399517001846,4043,4095,4095
1.0790965640007926,1991,4095,4095
1.0817919860019174,480,4095,4095
1.0844861580008,434,4095,4095
1.0871895800009952,1386,2832,3120
1.0898840439986088,4095,688,2653
1.0925762160004524,4095,4095,4095
1.0952729300006467,4095,4095,4095
1.0979689769992547,2678,4095,4095
1.1006641909989412,988,4095,4095
1.1033613219988183,443,4095,4095
1.1060565350016986,511,4095,4095
1.1087479990019347,4095,4095,4095
1.1114408380017267,4095,4095,4095
1.114133135000884,4095,4095,4095
1.116825974000676,3569,4095,4095
1.1195212290003838,1134,626,2640
1.1222168179992877,450,4095,4095
1.1249099900014699,437,4095,4095
1.1276053289984702,1951,4095,4095
1.1303016259989818,4095,3088,3319
1.1329971730010584,4095,4095,4095
1.1356959289987572,4095,4095,4095
1.1383931009986554,2320,4095,4095
1.1410871900006896,686,4095,4095
1.1437841949991707,441,4095,4095
1.1464801170004648,819,4095,4095
1.1491726640015258,4095,4095,4095
1.1518680869994569,4095,4095,4095
1.154561883999122,4095,4095,4095
1.1572556809987873,3179,4095,4095
1.1599532699983683,583,4095,4095
1.1626444419998734,439,4095,4095
1.1653371969987347,432,4095,4095
1.1680319529987173,3287,4095,4095
1.1707265410004766,4095,4095,4095
1.1734202549996553,4095,4095,4095
1.1761137610010337,3888,4095,4095
1.1788097659991763,1922,4095,4095
1.1815019380010199,459,4095,4095
1.1841967350010236,437,4095,4095
1.1868999489997805,1293,4095,4095
1.1895972880010959,4095,2675,2864
1.1922928769999999,4095,4095,4095
1.1949887160008075,4095,4095,4095
1.197713304998615,2581,4095,4095
1.2004451850007172,887,4095,4095
1.203155440998671,437,4095,4095
1.205851195998548,414,4095,4095
1.2085436179986573,4042,4095,4095
1.2112364989989146,4095,4095,4095
1.2139286710007582,4095,4095,4095
1.2166205100002117,3442,4095,4095
1.2193132229986077,1479,4095,3941
1.2220089369984635,439,4095,4095
1.2247014839995245,440,4095,4095
1.2273945310007548,1405,2425,3214
1.2300908700017317,4095,1395,2862
1.2327852509988588,4095,4095,4095
1.2354813390011259,4095,4095,4095
1.2381820949995017,2327,4095,4095
1.2408748090019799,699,4095,4095
1.2435704810013704,433,4095,4095
1.2462646109997877,557,4095,4095
1.24895824199848,4095,4095,4095
1.251655080999626,4095,4095,4095
1.2543525440014491,4095,4095,4095
1.257046424998407,3349,4095,4095
1.259742804999405,874,1612,2992
1.2624401860011858,443,4095,4095
1.2651340250013163,432,4095,4095
1.2678308629983803,2497,4095,4095
1.2705241610019584,4095,4095,3682
1.2732154580007773,4095,4095,4095
1.275910087999364,4070,4095,4095
1.2786060520011233,2054,4095,4095
1.2812984320007672,478,4095,4095
1.2839955630006443,433,4095,4095
1.2866905679984484,881,4095,4095
1.2893838650015823,4095,4095,4095
1.292079579001438,4095,4095,4095
1.294778210001823,4095,4095,4095
1.2974726739994367,2546,4095,4095
1.300167721001344,466,4095,4095
1.3028633930007345,433,4095,4095
1.3055577320010343,446,4095,4095
1.3082501950011647,3051,4095,4095
1.3109422009983973,4095,4095,4095
1.3136335810013406,4095,2900,3071
1.3163580040018132,3344,4095,4095
1.3190507590006746,1360,4095,4095
1.3217692639991583,437,4095,4095
1.3244625619990984,432,4095,4095
1.3271571500008577,1278,4095,4095
1.3298510730019188,4095,751,2517
1.33254303600188,4095,4095,4095
1.3352405420009745,3922,4095,4095
1.3379380059996038,1989,4095,4095
1.3406254280016583,462,4095,4095
1.3433195170000545,432,4095,4095
1.3460143550000794,411,4095,4095
1.3487085689994274,3632,4095,4095
1.3514042829992832,4095,4095,4095
1.35410062200026,3719,4095,4095
1.3567947109986562,2714,4095,4095
1.359490883001854,464,2553,2735
1.3621862209984101,439,4095,4095
1.364877019001142,432,4095,4095
1.3675712320000457,1187,2923,3299
1.370264571000007,4095,2143,3120
1.3729562430016813,4095,4095,4095
1.375649499001156,3517,4095,4095
1.3783445459994255,1657,4095,4095
1.381036718001269,447,4095,4095
1.383730473000469,435,4095,4095
1.386423479001678,496,4095,4095
1.3891159010017873,4095,4095,4095
1.3918116979984916,4095,4095,4095
1.3945049950016255,4095,4095,4095
1.3971980419992178,4095,4095,4095
1.3998915480005962,1969,2240,3173
1.4026201779997791,1381,4095,4095
1.4053228510019835,883,4095,4095
1.408015938999597,4095,4095,4095
1.4107139449988608,4095,4095,3866
1.413405284001783,4095,4095,4095
1.4161005390014907,4095,4095,4095
1.4187935029985965,2290,4095,4095
1.421489508000377,448,4095,4095
1.4241873060018406,433,4095,4095
1.426881144001527,538,4095,4095
1.429574441001023,3614,4095,4095
1.4322695299997577,4095,4095,4095
1.4349667440001213,2715,4095,4095
1.4376580829994055,1036,4095,4095
1.4403784220012312,320,4095,4095
1.4430739689996699,432,4095,4095
1.4457700989987643,430,4095,4095
1.4484622300005867,2278,4095,4095
1.4511596100019233,4095,4095,4095
1.4538564069989661,3110,2962,3319
1.4565505380014656,2316,4095,4095
1.4592449180017866,770,4095,4095
1.461940590001177,433,4095,4095
1.4646333040000172,432,4095,4095
1.467328850998456,1099,4095,4095
1.4700245240019285,4015,378,2531
1.4727171960003034,4095,4095,4095
1.47541215900128,3509,4095,4095
1.4781077900006494,1629,4095,4095
1.4808005039994896,446,4095,4095
1.4834950090007624,432,4095,4095
1.4861938479989476,384,4095,4095
1.4888869370006432,3504,4095,4095
1.4915850670004147,4095,4095,4095
1.4942802810001012,4095,4095,4095
1.496973245000845,2240,4095,4095
1.4996673749992624,135,1277,2527
1.5023602969995409,427,4095,4095
1.5050531359993329,434,4095,4095
1.5077440169989131,1175,3282,3698
1.5104383549987688,4095,2629,3221
1.5131311110017123,4095,4095,4095
1.5158251579996431,3287,4095,4095
1.5185202889988432,1327,4095,4095
1.521212961000856,442,4095,4095
1.5239092580013676,433,4095,4095
1.5266054720013926,400,4095,4095
1.529298227000254,4075,4095,4095
1.5319932329985022,4095,4095,4095
1.5346868630003883,4013,4095,4095
1.537379368000984,2013,4095,4095
1.5400780820018554,0,3294,3511
1.5427778379998927,435,4095,4095
1.545470592998754,427,4095,4095
1.5481685570011905,2237,4095,4095
1.5508656460006023,4095,4095,4095
1.5535575680005422,4095,4095,4095
1.556252656999277,2749,4095,4095
1.5589452460008033,996,4095,4095
1.5616373340017162,439,4095,4095
1.564353090001532,426,4095,4095
1.5670503450019169,779,4095,4095
1.5697663509999984,3600,3935,3750
1.5724597309999808,4095,4095,4095
1.5751551530011056,3535,4095,4095
1.5778507420000096,1619,4095,4095
1.5805454979999922,432,4095,4095
1.583240294999996,432,4095,4095
1.5859367170014593,418,4095,4095
1.588628888999665,2807,4095,4095
1.5913225609983783,4095,4095,4095
1.594017192001047,3278,3607,3499
1.59670894699957,2227,4095,4095
1.5994038280005043,522,4095,4095
1.6020970409990696,432,4095,4095
1.6047979639988625,432,4095,4095
1.607491511000262,592,3071,3087
1.6101846829988062,3519,653,2630
1.6128781879997405,4095,4095,4095
1.615571277001436,2793,4095,4095
1.618262116000551,1023,4095,4095
1.6209526210004697,432,4095,4095
1.6236434179991193,430,4095,4095
1.6263338819990167,372,4095,4095
1.6290276379986608,3047,4095,4095
1.63172464300078,4095,4095,4095
1.6344169820004026,3467,4095,4095
1.6371096539987775,1634,4095,4095
1.6398061180007062,0,611,2546
1.6425029980018735,432,4095,4095
1.6451962540013483,432,4095,4095
1.6478933010002947,880,4095,4095
1.650588472999516,3402,3044,3373
1.6532792290017824,4095,4095,4095
1.6559749010011728,2277,4095,4095
1.658669447999273,595,4095,4095
1.6613604119993397,429,4095,4095
1.6640553340002953,432,4095,4095
1.6667512979984167,368,4095,4095
1.6694423029985046,3440,4095,4095
1.6721369330007292,4095,4095,4095
1.6748305639994214,2955,4095,4095
1.6775256940018153,1203,4095,4095
1.680219866000698,0,4095,3888
1.6829137050008285,430,4095,4095
1.6856046690008952,428,4095,4095
1.688298715998826,1808,4095,4095
1.6909986800019396,3331,4095,4095
1.69372047700017,3600,4095,4095
1.6964153990011255,1826,4095,4095
1.6991121960018063,443,4095,4095
1.7018064520016196,427,4095,4095
1.7044977490004385,431,4095,4095
1.7071908799989615,502,4095,4095
1.709881842998584,2774,2816,2894
1.712572682001337,4095,4095,4095
1.7152652709992253,2416,4095,4095
1.7179569430008996,746,4095,4095
1.7206477399995492,431,4095,4095
1.7233412040004623,430,4095,4095
1.7260363759996835,415,4095,4095
1.7287273820002156,2225,4095,4095
1.73141905400189,4027,4095,4095
1.7341151010004978,2438,3617,3649
1.7368068559990206,1403,4095,4095
1.7394996530019853,438,4095,4095
1.7421979089995148,430,4095,4095
1.7448928730009357,431,4095,4095
1.747594210999523,286,3194,3103
1.7502932169991254,2928,703,2691
1.7530131810017338,3791,4095,4095
1.7557263529997726,2115,4095,4095
1.7584212330002629,454,4095,4095
1.7611120309993566,432,4095,4095
1.7638044109990005,430,4095,4095
1.7664993750004214,365,4095,4095
1.7691905889987538,2797,4095,4095
1.771885136000492,4095,4095,4095
1.7745822249999037,2851,4095,4095
1.7772749380019377,1151,4095,4095
1.7799698599992553,0,746,2704
1.7826660739992803,431,4095,4095
1.7853577460009546,430,4095,4095
1.7880524190004508,816,4095,4095
1.7907466319993546,3173,3463,3502
1.7934383460014942,3600,4095,4095
1.7961297270012437,1839,4095,4095
1.7988236490018608,442,4095,4095
1.8015131540014409,431,4095,4095
1.804206617998716,431,4095,4095
1.806906372999947,361,4095,4095
1.8096040039999934,3323,4095,4095
1.8122979260006105,4073,4095,4095
1.8149942650015873,2434,4095,4095
1.8177220200013835,697,4095,4095
1.8204221929991036,0,4095,4095
1.8231149899984302,431,4095,4095
1.8258109119997243,431,4095,4095
1.8285060839989455,1719,4095,4095
1.8311970889990334,3132,4095,4095
1.8338910109996505,2694,3491,3631
1.8365861419988505,1255,4095,4095
1.8392815639999753,437,4095,4095
1.8419777780000004,430,4095,4095
1.8446686169991153,429,4095,4095
1.8473624549988017,470,4095,4095
1.8500557529987418,2559,1875,2672
1.8527480910015584,3520,4095,4095
1.855444554999849,1923,4095,4095
1.8581407269994088,450,4095,4095
1.8608319830018445,432,4095,4095
1.8635255720000714,432,4095,4095
1.8662208690002444,401,4095,4095
1.8689152080005442,2178,4095,4095
1.8716112959991733,3721,4095,4095
1.8743089269992197,2092,4095,4095
1.8769997240015073,965,4095,4095
1.8796959790015535,393,4095,4061
1.8823900269999285,429,4095,4095
1.8850829069997417,426,4095,4095
1.8877772870000626,259,2549,3157
1.890471085000172,2769,1399,2871
1.8931649650003237,3407,4095,4095
1.8958591369992064,1631,4095,4095
1.8985528090015578,435,4095,4095
1.9012485650018789,432,4095,4095
1.9039466950016504,426,4095,4095
1.9066409090009984,367,4095,4095
1.9093331229996693,2827,4095,4095
1.912027002999821,4095,4095,4095
1.9147184249995917,3379,4095,4095
1.9174103059995105,1680,4095,4095
1.9201004360002116,0,1046,2798
1.922792566998396,432,4095,4095
1.9254838220003876,440,4095,4095
1.9281796190007299,2413,4095,4095
1.9308754580015375,4095,3955,3546
1.9335695469999337,4095,4095,4095
1.936266718999832,3989,4095,4095
1.9389600579997932,1345,4095,4095
1.94165318800151,431,4095,4095
1.9443779860012,431,4095,4095
1.9470752829984121,375,4095,4095
1.9497709550014406,2991,4095,4095
1.952462960001867,3387,4095,4095
1.9551591320014268,1555,4095,4095
1.9578498049995687,432,4095,4095
1.9605398519997834,0,4095,4095
1.9632336899994698,429,4095,4095
1.9659299459999602,432,4095,4095
1.9686227429992869,1306,4095,4095
1.971317124000052,2512,4095,4095
1.9740102540017688,1805,3018,3632
1.9767009259994666,855,4095,4095
1.9793937229987932,434,4095,4095
1.982089103999897,427,4095,4095
1.9847811090003233,430,4095,4095
1.9874766979992273,553,4095,4095
1.9901706199998443,2994,1535,2639
1.9928624169988325,4095,4095,4095
1.9955592139995133,2256,4095,4095
1.998258428000554,487,4095,4095
2.000951434001763,435,4095,4095
2.003697648000525,429,4095,4095
2.0064532780015725,384,4095,4095
2.009168366999802,2854,4095,4095
2.0118808719998924,4095,4095,4095
2.0145787530018424,3154,4095,4095
2.017270299998927,1259,4095,4095
2.019964806000644,0,1535,2559
2.0226599359993997,430,4095,4095
2.0253515250005876,423,4095,4095
2.0280475719991955,813,3088,3546
2.0307466609992844,3792,2448,3194
2.0334406250003667,4095,4095,4095
2.036134754998784,2170,4095,4095
2.038829593999253,454,4095,4095
2.0415224739990663,430,4095,4095
2.0442162709987315,432,4095,4095
2.046911360001104,375,4095,4095
2.049601907001488,3853,4095,4095
2.052294537999842,4095,4095,4095
2.054988460000459,3386,4095,4095
2.0577168820018414,1213,4095,4095
2.060412388000259,0,3126,3473
2.0631099349993747,428,4095,4095
2.0658063990013034,432,4095,4095
2.06849840400173,2183,4095,4095
2.0724634120015253,4095,4095,4095
2.075177000999247,4095,4095,4095
2.0778715060005197,1237,4095,4095
2.080563595001877,0,4095,4095
2.0832596420004847,424,4095,4095
2.0859553560003405,433,4095,4095
2.088647652999498,2512,4095,4095
2.0913454920009826,4095,4095,4095
2.094042871998681,4095,3994,3687
2.0967371279984945,2169,4095,4095
2.0994342580015655,454,4095,4095
2.1021304310015694,432,4095,4095
2.104822311001044,432,4095,4095
2.1075175250007305,857,4095,4095
2.110215614000481,4095,1873,2675
2.1129112019989407,4095,4095,4095
2.1156026249991555,3307,4095,4095
2.11829450499863,1088,4095,4095
2.120987343998422,432,4095,4095
2.1236793489988486,427,4095,4095
2.126377937998768,399,4095,4095
2.129073776999576,3445,4095,4095
2.13176969900087,4095,4095,4095
2.134463621001487,3230,4095,4095
2.137155085001723,1888,4095,4095
2.1398510899998655,445,4095,4095
2.1425440960010746,429,4095,4095
2.1452375180015224,432,4095,4095
2.1479338979988825,848,2479,3173
2.1506265710013395,4095,1221,2857
2.1533176180018927,4095,4095,4095
2.156012331000966,2814,4095,4095
2.1587103370002296,790,4095,4095
2.1614035919992602,431,4095,4095
2.1640995560010197,416,4095,4095
2.166793186999712,382,4095,4095
2.1694836919996305,4095,4095,4095
2.1721768640018126,4095,4095,4095
2.1748717859991302,3970,4095,4095
2.1775646669993876,1707,4095,4095
2.180258005999349,0,1210,2855
2.182951219001552,433,4095,4095
2.1856416830014496,432,4095,4095
2.1883658549995744,1662,4095,4095
2.19106398599979,4095,3979,3563
2.193781033001869,4095,4095,4095
2.1964732890010055,2608,4095,4095
2.1991697939993173,597,4095,4095
2.2018643410010554,434,4095,4095
2.2045499720006774,432,4095,4095
2.2072791020000295,511,4095,4095
2.209985315999802,4095,4095,4095
2.212677863000863,4095,4095,4095
2.2153801189997466,3583,4095,4095
2.218073666001146,1402,4095,4095
2.220766921000177,190,4095,4095
2.2234627600009844,387,4095,4095
2.2261544319990207,432,4095,4095
2.2288449379993835,3115,4095,4095
2.2315401099986047,4095,4095,4095
2.2342352400009986,3651,2557,3145
2.2369259119986964,2295,4095,4095
2.239621125998383,458,4095,4095
2.2423166730004596,427,4095,4095
2.2450093449988344,429,4095,4095
2.2477038510005514,1072,4095,4095
2.2503982730013377,4095,833,2507
2.2530949450010667,4095,4095,4095
2.2557928259993787,3420,4095,4095
2.2584897890010325,1168,4095,4095
2.2611820450001687,432,4095,4095
2.2638783420006803,427,4095,4095
2.2665730560001975,390,4095,4095
2.269264893999207,4066,4095,4095
2.2719614829984494,4095,4095,4095
2.2746574470002088,3482,4095,4095
2.2773497859998315,2155,4095,4095
2.2800452500014217,0,2992,2810
2.2827398800000083,432,4095,4095
2.2854351770001813,432,4095,4095
2.288130891000037,1289,2944,3317
2.2908236879993638,4095,2135,3067
2.2935136099986266,4095,4095,4095
2.29620819900083,3402,4095,4095
2.2989051209988247,1179,4095,4095
2.301597710000351,434,4095,4095
2.304291632000968,433,4095,4095
2.306985637998878,390,4095,4095
2.3096777259997907,4095,4095,4095
2.3123986899990996,4095,4095,4095
2.315091153999674,4095,4095,4095
2.317782326001179,2096,4095,4095
2.3204734149985597,0,2368,3188
2.323163254000974,431,4095,4095
2.3258524679986294,432,4095,4095
2.328549973000918,2715,4095,4095
2.3312430619989755,4095,4095,3837
2.333935983999254,4095,4095,4095
2.336626530999638,3194,4095,4095
2.3393187030014815,949,4095,4095
2.342012542001612,432,4095,4095
2.3447043810010655,431,4095,4095
2.34739684500164,772,4095,4095
2.3500948500004597,4095,4095,4095
2.3527876469997864,4095,4095,4095
2.3554814439994516,4025,4095,4095
2.3581771579993074,1731,4095,4095
2.36086949699893,194,4095,4095
2.3635632939985953,432,4095,4095
2.366258800000651,436,4095,4095
2.36895043000186,3562,4095,4095
2.3716447689985216,4095,4095,4095
2.37433802400119,4077,2483,3161
2.3770290710017434,2698,4095,4095
2.379725034999865,695,4095,4095
2.3824202489995514,434,4095,4095
2.3851138790014375,432,4095,4095
2.387809552001272,1360,4095,4095
2.390504973998759,4095,829,2493
2.393195520999143,4095,4095,4095
2.3958907349988294,3933,4095,4095
2.398588282001583,1664,4095,4095
2.401278621000529,437,4095,4095
2.4039723339992634,427,4095,4095
2.4066653400004725,398,4095,4095
2.409391011999105,4095,4095,4095
2.4120982679996814,4095,4095,4095
2.4147909810017154,4095,4095,4095
2.4174839869992866,2550,4095,4095
2.4201753259985708,78,2192,2666
2.422870081001747,433,4095,4095
2.4255646700003126,433,4095,4095
2.428256634000718,1732,3172,3442
2.430950431000383,4095,2189,3093
2.4336416449987155,4095,4095,4095
2.4363632329987013,4095,4095,4095
2.439059656000609,2725,4095,4095
2.4417742030018417,1206,4095,4095
2.444469082998694,456,4095,4095
2.4471679640009825,1581,4095,4095
2.449865343998681,4095,4095,4095
2.452556516000186,4095,4095,4095
2.4552505220017338,4095,4095,4095
2.4579459019987553,4095,4095,4095
2.4606375740004296,1582,3060,3399
2.4633315800019773,433,4095,4095
2.466026377001981,432,4095,4095
2.46871734099841,3360,4095,4095
2.471410971000296,4095,4095,4095
2.474108143000194,4095,4095,4095
2.476801731998421,2716,4095,4095
2.479496863001259,529,4095,4095
2.482190450999042,428,4095,4095
2.484882123000716,437,4095,4095
2.4875763790005294,743,4095,4095
2.4902692590003426,4095,4095,3975
2.4929625570002827,4095,4095,4095
2.495654353999271,4095,4095,4095
2.4983464420001837,1941,4095,4095
2.501041572999384,361,4095,4095
2.5037369950005086,429,4095,4095
2.5064331670000684,439,4095,4095
2.5091267560019332,4095,4095,4095
2.5118233030007104,4095,4095,4095
2.5145203089996357,4095,3055,3373
2.517213522001839,3759,4095,4095
2.519904193999537,1556,4095,4095
2.5225959080016764,442,4095,4095
2.5252858300009393,432,4095,4095
2.5279775859999063,1899,4095,4095
2.5306749250012217,4095,413,2496
2.5333689719991526,4095,4095,4095
2.5360641020015464,4095,4095,4095
2.5387598580018675,2676,4095,4095
2.541452155001025,715,4095,4095
2.5441481189991464,432,4095,4095
2.54684395699951,459,4095,4095
2.5495364630005497,4095,4095,4095
2.5522297179995803,4095,4095,4095
2.5549250570002187,4095,4095,4095
2.557617770999059,3932,4095,4095
2.5603258599985566,1149,1535,2550
2.5630267820015433,441,4095,4095
2.5657483710019733,432,4095,4095
2.568444418000581,2458,4095,4095
2.5711412570017274,4095,2729,3215
2.573839429001964,4095,4095,4095
2.57653455900072,4095,4095,4095
2.579229522998503,2656,4095,4095
2.581922986999416,741,4095,4095
2.5846148669988906,432,4095,4095
2.587311539999064,1009,4095,4095
2.5900069199997233,4095,4095,4095
2.5926993419998325,4095,4095,4095
2.5953935559991805,4095,4095,4095
2.5980873109983804,3917,4095,4095
2.6007813590003934,1155,3877,3643
2.6034762390008837,437,4095,4095
2.606174660999386,439,4095,4095
2.608868541999982,4095,4095,4095
2.6115912970017234,4095,4095,4095
2.614295094001136,4095,4095,4095
2.6169884330010973,4095,4095,4095
2.6196794390016294,2634,4095,4095
2.6223698610010615,752,4095,4095
2.625063407998823,435,4095,4095
2.6277566220014705,1869,4095,4095
2.6304600020012003,4095,3106,3026
2.6331531329997233,4095,4095,4095
2.6358481380011654,4095,4095,4095
2.6385434350013384,3665,4095,4095
2.6412361069997132,1503,4095,4095
2.643934738000098,441,4095,4095
2.646629826998833,462,4095,4095
2.6493214149995765,4095,4095,4095
2.6520160869986285,4095,4095,4095
2.6547105930003454,4095,4001,3698
2.6574014729994815,4095,4095,4095
2.6600952699991467,2292,4095,4095
2.6627883590008423,496,4095,4095
2.665480240000761,434,4095,4095
2.668174911999813,2057,2821,3101
2.670870958998421,4095,617,2635
2.673563505999482,4095,4095,4095
2.676258177998534,4095,4095,4095
2.678952725000272,3411,4095,4095
2.6816438979985833,1218,4095,4095
2.6843663610015938,431,4095,4095
2.687062324999715,731,4095,4095
2.6897804969994468,4095,4095,4095
2.692474128001777,4095,4095,4095
2.6951805499993498,4095,4095,4095
2.697876055000961,4095,4095,4095
2.7005677689994627,1507,802,2739
2.703261733000545,415,4095,4095
2.7078500339994207,435,4095,4095
2.7105504979990656,4095,2559,2831
2.713245877999725,4095,4095,4095
2.715943300001527,4095,4095,4095
2.718635223001911,3650,4095,4095
2.721327186001872,1464,4095,4095
2.7240187329989567,436,4095,4095
2.7267129060019215,448,4095,4095
2.7294063279987313,4095,4095,4095
2.7320997919996444,4095,4095,4095
2.7347934640019957,4095,4095,4095
2.737484551998932,4095,4095,4095
2.740178849999211,2260,4095,4095
2.742874062998453,475,4095,4095
2.745559859999048,433,4095,4095
2.748253615998692,2114,2676,3120
2.750951455000177,4095,733,2690
2.753645584998594,4095,4095,4095
2.7563731740010553,4095,4095,4095
2.759070054999029,3326,4095,4095
2.761765227001888,1104,4095,4095
2.764458399000432,433,4095,4095
2.767153487999167,742,4095,4095
2.769848951000313,4095,4095,4095
2.772539082001458,4095,4095,4095
2.7752333790012926,4095,4095,4095
2.777929176001635,4095,4095,4095
2.780620640001871,1390,891,2743
2.783313644998998,438,4095,4095
2.7860081090002495,436,4095,4095
2.7887026150019665,2985,4095,4095
2.79139924500123,4095,3744,3519
2.7940936669983785,4095,4095,4095
2.796786756000074,4095,4095,4095
2.799482053000247,2983,4095,4095
2.8021762249991298,959,4095,4095
2.8048679390012694,438,4095,4095
2.8075625700003,1309,4095,4095
2.8102577829995425,4095,4095,4095
2.812985996999487,4095,4095,4095
2.815696169000148,4095,4095,4095
2.8183918419999827,4095,4095,4095
2.8210844720015302,1291,4095,4095
2.8237761019991012,443,4095,4095
2.8264676079998026,458,4095,4095
2.8291594049987907,4095,4095,4095
2.8318487020005705,4095,4095,4095
2.834544958001061,4095,3371,3607
2.8372365050017834,4095,4095,4095
2.8399316350005392,2768,4095,4095
2.842627766000078,848,4095,4095
2.8453195209986006,432,4095,4095
2.848014401999535,2146,4095,4095
2.8507117400004063,4095,1650,2655
2.853406204001658,4095,4095,4095
2.856102584999462,4095,4095,4095
2.8587977569986833,3668,4095,4095
2.861491636998835,1458,4095,4095
2.864185558999452,439,4095,4095
2.866879023000365,458,4095,4095
2.8695702369986975,4095,4095,4095
2.8722641589993145,4095,4095,4095
2.874959040000249,4095,4095,4095
2.8776485029993637,4095,4095,4095
2.8803726760015707,2072,4095,3814
2.8830685979992268,448,4095,4095
2.885767727999337,433,4095,4095
2.888461400001688,2286,2512,3219
2.891155739001988,4095,1481,2896
2.893849953001336,4095,4095,4095
2.896541000001889,4095,4095,4095
2.899236547000328,3207,4095,4095
2.901931844000501,1004,4095,4095
2.904621350000525,438,4095,4095
2.907314146999852,783,4095,4095
2.910006694000913,4095,4095,4095
2.9126991580014874,4095,4095,4095
2.9153922049990797,4095,4095,4095
2.9180873350014735,4095,4095,4095
2.920782508001139,1311,1456,2939
2.9234739300009096,441,4095,4095
2.9261643099998764,433,4095,4095
2.9288582740009588,3699,4095,4095
2.9315523209988896,4095,4095,3653
2.934247201999824,4095,4095,4095
2.9369393320012023,4095,4095,4095
2.9396365040011005,2654,4095,4095
2.9423328849989048,710,4095,4095
2.945023307001975,434,4095,4095
2.9477189370009,1391,4095,4095
2.9504166090009676,4095,4095,4095
2.9531104900015634,4095,4095,4095
2.955806786998437,4095,4095,4095
2.9585020420017827,4095,4095,4095
2.9611930060018494,2550,4095,4095
2.9638868869988073,1767,4095,4095
2.9665807249984937,1435,4095,4095
2.969271188998391,4095,4095,4095
2.9719661950002774,4095,4095,4095
2.974659907999012,4095,2944,3651
2.9773630810013856,4095,4095,4095
2.980060128000332,3698,4095,4095
2.982758467001986,1180,4095,4095
2.985453804998542,437,4095,4095
2.9881500609990326,1826,4095,4095
2.9908471499984444,4095,1200,2553
2.993536904999928,4095,4095,4095
2.9962313270007144,4095,4095,4095
2.9989264579999144,2170,4095,4095
3.0016175050004676,448,4095,4095
3.00437630200031,431,4095,4095
3.0071079740009736,406,4095,4095
3.0098058129988203,4095,4095,4095
3.012499819000368,4095,4095,4095
3.0151969910002663,4095,4095,4095
3.017903413001477,3835,4095,4095
3.0206128770005307,1157,1759,2601
3.0233084239989694,444,4095,4095
3.02600017900113,436,4095,4095
3.0286911850016622,2587,3600,3643
3.03138368999862,4095,2522,3189
3.0340775289987505,4095,4095,4095
3.0367682010000863,4095,4095,4095
3.0394599979990744,3310,4095,4095
3.04215550400113,1145,4095,4095
3.044850801001303,438,4095,4095
3.0475492229998054,1074,4095,4095
3.050243270001374,4095,4095,4095
3.052933317001589,4095,4095,4095
3.0556284060003236,4095,4095,4095
3.058319495001342,4095,4095,4095
3.061010917001113,1535,3170,3425
3.063706421999086,461,4095,4095
3.0664028450009937,444,4095,4095
3.0690886000011233,4095,4095,4095
3.0717846890001965,4095,4095,4095
3.0744812359989737,4095,4095,4095
3.0771763660013676,4095,4095,4095
3.079874121998728,3257,4095,4095
3.0825682940012484,1114,4095,4095
3.0852611330010404,442,4095,4095
3.087957096999162,1829,4095,4095
3.0906532689987216,4095,4095,4095
3.0933453580000787,4095,4095,4095
3.0960395299989614,4095,4095,4095
3.098733867998817,4095,4095,4095
3.101424999000301,1883,4095,4095
3.1041173789999448,458,4095,4095
3.1068123020013445,471,4095,4095
3.1095103490006295,4095,4095,4095
3.112207436999597,4095,4095,4095
3.1149035679991357,4095,2960,3317
3.1175960319997102,4095,4095,4095
3.1202918290000525,3027,4095,4095
3.1229860839994217,1053,4095,4095
3.1256773810018785,441,4095,4095
3.128404387000046,2514,4095,4002
3.1310974340012763,4095,414,2559
3.13379006499963,4095,4095,4095
3.1364816530003736,4095,4095,4095
3.139177783999912,4060,4095,4095
3.1418752479985415,1813,4095,4095
3.1445639609992213,449,4095,4095
3.1472586339987174,779,4095,4095
3.149955097000202,4095,4095,4095
3.15264747800029,4095,4095,4095
3.1553441079995537,4095,4095,4095
3.158040821999748,4095,4095,4095
3.1607325360018876,2038,970,2534
3.1634253330012143,765,4095,4095
3.166120754998701,441,4095,4095
3.16881296900101,2919,4095,4095
3.1715088080018177,4095,2794,3259
3.174204187998839,4095,4095,4095
3.1768989020019944,4095,4095,4095
3.1795917410017864,3523,4095,4095
3.1822880799991253,1405,4095,4095
3.184981501999573,439,4095,4095
3.1876762159990903,1217,4095,4095
3.190373138000723,4095,4095,4095
3.193064017999859,4095,4095,4095
3.1957589400008146,4095,4095,4095
3.19845536199864,4095,4095,4095
3.2011468679993413,1634,3827,3651
3.2038427900006354,477,4095,4095
3.2065406699985033,447,4095,4095
3.2092353430016374,4095,4095,4095
3.2119305560008797,4095,4095,4095
3.21462568700008,4095,4095,4095
3.217317025999364,4095,4095,4095
3.22001032299886,3225,4095,4095
3.2227054530012538,1097,4095,4095
3.2253958340006648,433,4095,4095
3.2280873810013873,1870,4095,4095
3.2307790529994236,4095,4095,3917
3.23347105799985,4095,4095,4095
3.2361621060008474,4095,4095,4095
3.2388595689990325,4095,4095,4095
3.241553533000115,1745,4095,4095
3.2442497049996746,448,4095,4095
3.2469450019998476,464,4095,4095
3.249637466000422,4095,4095,4095
3.252360721999139,4095,4095,4095
3.255056810001406,4095,3769,3536
3.2577727739990223,4095,4095,4095
3.2604661129989836,2529,4095,4095
3.26316132699867,656,4095,4095
3.2658567069993296,435,4095,4095
3.26855033800166,2064,3026,3136
3.271248259999993,4095,621,2626
3.2739419319987064,4095,4095,4095
3.2766346460011846,4095,4095,4095
3.279328192998946,3470,4095,4095
3.2820233650018054,1335,4095,4095
3.2847093290001794,446,4095,4095
3.2874011259991676,674,4095,4095
3.2900933400014765,4095,4095,4095
3.2927834289985185,4095,4095,4095
3.295476808998501,4095,4095,4095
3.2981706479986315,4095,4095,4095
3.3008638200008136,1567,605,2559
3.3035597419984697,457,4095,4095
3.3062534560012864,441,4095,4095
3.308944585998688,2736,4095,4095
3.311636966998776,4095,3120,3307
3.314330056000472,4095,4095,4095
3.3170216450016596,4095,4095,4095
3.319716566998977,3299,4095,4095
3.3224069050011167,1127,4095,4095
3.325098118999449,439,4095,4095
3.327787416001229,1150,4095,4095
3.330476922001253,4095,4095,4095
3.333166427000833,4095,4095,4095
3.3358566829992924,4095,4095,4095
3.3385501470002055,4095,4095,4095
3.341241568999976,1456,3984,3663
3.343934865999472,451,4095,4095
3.346630620999349,443,4095,4095
3.349322501999268,4095,4095,4095
3.3520159239997156,4095,4095,4095
3.3547098460003326,4095,4095,4095
3.3574009760013723,4095,4095,4095
3.3600965650002763,3024,4095,4095
3.3627891540018027,1006,4095,4095
3.3655100760006462,433,4095,4095
3.3682067480003752,1839,4095,4095
3.370901253998454,4095,3449,3227
3.3735920090002764,4095,4095,4095
3.3762856399989687,4095,4095,4095
3.3789950200007297,3814,4095,4095
3.3817147340014344,1575,4095,4095
3.3844071560015436,441,4095,4095
3.3871017029996437,451,4095,4095
3.389797374999034,4095,4095,4095
3.3924899230005394,4095,4095,4095
3.3951860109991685,4095,4095,3773
3.397885225000209,4095,4095,4095
3.4005802719984786,2237,4095,4095
3.403275152999413,465,4095,4095
3.4059697830016376,434,4095,4095
3.408662246998574,1936,2989,3145
3.411358253000799,4095,719,2694
3.4140528829993855,4095,4095,4095
3.416747347000637,4095,4095,4095
3.419441893998737,3272,4095,4095
3.42215827399923,1079,4095,4095
3.4248632800008636,432,4095,4095
3.427558326999133,672,4095,4095
3.430255623999983,4095,4095,4095
3.4329477550018055,4095,4095,4095
3.4356404270001804,4095,4095,4095
3.438334307000332,4095,4095,4095
3.4410262710007373,1334,731,2715
3.4437219009996625,445,4095,4095
3.446416782000597,437,4095,4095
3.4491099959996063,2734,4095,4095
3.4518060849986796,4095,3408,3455
3.454504214998451,4095,4095,4095
3.457196303999808,4095,4095,4095
3.4598896429997694,2662,4095,4095
3.4625870650015713,741,4095,4095
3.4652826540004753,432,4095,4095
3.4679792009992525,1198,4095,4095
3.470675955999468,4095,4095,4095
3.473370294999768,4095,4095,4095
3.4760647590010194,4095,4095,4095
3.4787602229989716,4095,4095,4095
3.4814530610019574,2471,4095,4095
3.4841468170016014,1699,4095,4095
3.4868408639995323,1295,4095,4095
3.489531953000551,4095,4095,4095
3.492226041998947,4095,4095,4095
3.494924422000622,4095,4095,3760
3.4976188860018738,4095,4095,4095
3.5003233079987695,3856,4095,4095
3.5030214799990063,1302,4095,4095
3.5057411519992456,434,4095,4095
3.5084365330003493,1614,4095,4095
3.5111345799996343,4095,1765,2646
3.513830919000611,4095,4095,4095
3.516524173999642,4095,4095,4095
3.5192201800018665,2058,4095,4095
3.5219122679991415,447,4095,4095
3.524604899001133,431,4095,4095
3.5272956539993174,410,4095,4095
3.5299885349995748,4095,4095,4095
3.5326820820009743,4095,4095,4095
3.5353744620006182,4095,4095,4095
3.5380701340000087,3740,4095,4095
3.5407598480014713,1606,4095,3984
3.5434545620009885,442,4095,4095
3.546150693000527,432,4095,4095
3.5488444059992617,2032,2631,3165
3.5515355780007667,4095,1457,2858
3.554231541998888,4095,4095,4095
3.556924088999949,4095,4095,4095
3.559621345000778,3291,4095,4095
3.5623173499989207,1135,4095,4095
3.5650121889993898,435,4095,4095
3.5677072780017625,784,4095,4095
3.570400992000941,4095,4095,4095
3.573093331000564,4095,4095,4095
3.5757870439992985,4095,4095,4095
3.5784820500011847,4095,4095,4095
3.5811745969986077,1526,1263,2864
3.583871435999754,458,4095,4095
3.586566275000223,441,4095,4095
3.5892601129999093,3466,4095,4095
3.591957327000273,4095,4048,3583
3.594652291001694,4095,4095,4095
3.59734317100083,4095,4095,4095
3.6000375100011297,3187,4095,4095
3.602731891001895,1077,4095,4095
3.6054246880012215,441,4095,4095
3.60812023499966,1377,4095,4095
3.610815031999664,4095,4095,4095
3.6135076210011903,4095,4095,4095
3.616203167999629,4095,4095,4095
3.6188973399985116,4095,4095,4095
3.621591471001011,1391,4095,4095
3.6242857260003802,452,4095,4095
3.626988439998968,457,4095,4095
3.629709486998763,4095,4095,4095
3.632406117001665,4095,4095,4095
3.635098039998411,4095,2609,3131
3.637790753000445,4095,4095,4095
3.6404816760004906,2832,4095,4095
3.643172764001065,955,4095,4095
3.6458690200015553,442,4095,4095
3.6485610250019818,2160,4095,4095
3.6512557810019644,4095,1200,2559
3.6539512859999377,4095,4095,4095
3.656643999998778,4095,4095,4095
3.65933717200096,3893,4095,4095
3.6620325529984257,1729,4095,4095
3.6647276830008195,447,4095,4095
3.6674260219988355,543,4095,4095
3.6701208609993046,4095,4095,4095
3.6728123239990964,4095,4095,4095
3.6755068720012787,4095,4095,4095
3.678200376998575,4095,4095,4095
3.6808928819991706,2220,3711,3530
3.683587888001057,683,4095,4095
3.6862814769992838,443,4095,4095
3.6889759820005565,2271,2637,3239
3.6916732380013855,4095,1680,2939
3.6943691179985763,4095,4095,4095
3.6970626239999547,4095,4095,4095
3.699760711999261,3438,4095,4095
3.702456801001972,1307,4095,4095
3.7051489320001565,437,4095,4095
3.7078451039997162,859,4095,4095
3.7105394009995507,4095,4095,4095
3.7132316560018808,4095,4095,4095
3.7159272450007848,4095,4095,4095
3.718621791998885,4095,4095,4095
3.721312506000686,1521,1895,3137
3.7240105950004363,459,4095,4095
3.7267074340015824,438,4095,4095
3.72939993899854,3925,4095,4095
3.732091402998776,4095,4095,3695
3.73478194999916,4095,4095,4095
3.737472455999523,4095,4095,4095
3.7401629609994416,2932,4095,4095
3.74285909199898,991,4095,4095
3.7455498470008024,443,4095,4095
3.748242811001546,1403,4095,4095
3.750941565998801,4095,4095,4095
3.7536351550006657,4095,4095,4095
3.756382785999449,4095,4095,4095
3.7590983740010415,3789,4095,4095
3.761814837998827,1458,4095,4095
3.764518969001074,434,4095,4095
3.767212598999322,448,4095,4095
3.7699033550015884,4095,4095,4095
3.7725945269994554,4095,4095,4095
3.7752892409989727,4095,2864,3308
3.7779831209991244,4095,4095,4095
3.7806765850000374,2279,4095,4095
3.7833707989993854,495,4095,4095
3.786064471001737,434,4095,4095
3.7887563930016768,1919,4095,4095
3.7914520650010672,4095,478,2487
3.7941611540009035,4095,4095,4095
3.7968677839999145,4095,4095,4095
3.799563872998988,3219,4095,4095
3.8022558789998584,1074,4095,4095
3.804947592001554,435,4095,4095
3.8076406809996115,464,4095,4095
3.81033360299989,4095,4095,4095
3.8130298590003804,4095,4095,4095
3.8157256140002573,4095,4095,4095
3.8184201610019954,4065,4095,4095
3.821113375001005,1296,1346,2530
3.8238078389986185,444,4095,4095
3.826504718999786,437,4095,4095
3.8291968919984356,2205,3486,3635
3.83188797999901,4095,2599,3163
3.8345783190015936,4095,4095,4095
3.8372697410013643,4095,4095,4095
3.8399630380008603,2737,4095,4095
3.842659377001837,838,4095,4095
3.845351423999091,432,4095,4095
3.848044846999983,845,4095,4095
3.8507398100009596,4095,4095,4095
3.853431774001365,4095,4095,4095
3.856126488000882,4095,4095,4095
3.858824326998729,3826,4095,4095
3.8615186649985844,1147,3175,3413
3.864213838001888,443,4095,4095
3.866908426000009,438,4095,4095
3.8696001399985107,3900,4095,4095
3.8722934370016446,4095,4095,4095
3.874990609001543,4095,4095,4095
3.8777138229997945,4095,4095,4095
3.8804077040003904,2524,4095,4095
3.8831016680014727,663,4095,4095
3.885796381000546,437,4095,4095
3.8884907200008456,1503,4095,4095
3.8911855170008494,4095,4095,3888
3.893883022999944,4095,4095,4095
3.8965738199985935,4095,4095,4095
3.899265659001685,3410,4095,4095
3.901959580998664,1163,4095,4095
3.9046505449987308,443,4095,4095
3.9073439669991785,448,4095,4095
3.9100383059994783,4095,4095,4095
3.912730978001491,4095,4095,4095
3.915426691000903,4095,3343,3494
3.9181205300010333,4095,4095,4095
3.92081391100146,1849,4095,4095
3.92351087499992,443,4095,4095
3.926204797000537,438,4095,4095
3.928899177000858,1612,4095,3947
3.931595682999614,4095,425,2505
3.9342915209999774,4095,4095,4095
3.936985234999156,4095,4095,4095
3.939677115999075,2635,4095,4095
3.942368746000284,725,4095,4095
3.9460667540006398,431,4095,4095
3.948770676001004,426,4095,4095
3.9514676809994853,4095,1040,2550
3.9541654780005047,4095,4095,4095
3.9568602340004873,4095,4095,4095
3.9595548229990527,2722,4095,4095
3.9622500779987604,787,4095,4095
3.964942416998383,433,4095,4095
3.967634339001961,427,4095,4095
3.9703283029994054,4095,4095,4095
3.9730200999983936,4095,4095,4095
3.9757151049998356,4095,4095,4095
3.978410152998549,3651,4095,4095
3.981100240998785,1014,3188,3412
3.9837937470001634,441,4095,4095
3.9864904610003578,382,4095,4095
3.9891835909984366,1891,2650,3235
3.991881097001169,4095,1791,2942
3.9945767690005596,4095,4095,4095
3.997268940998765,4095,4095,4095
3.999964237998938,4095,4095,4095
4.002658743000211,2426,4095,4095
4.005409957000666,1323,4095,4095
4.008142254999257,2011,4095,4095
4.010835927001608,4095,4095,4095
4.013528598999983,4095,4095,4095
4.016222979000304,4095,4095,4095
4.018922693001514,4095,4095,4095
4.0216180739989795,1184,3059,3410
4.02432449600019,427,4095,4095
4.0270377099986945,434,4095,4095
4.029781839999487,2701,4095,4095
4.032477595999808,4095,4095,4095
4.035171143001207,4095,4095,4095
4.0378631060011685,2777,4095,4095
4.040554487000918,767,4095,4095
4.043249284000922,432,4095,4095
4.045944165001856,430,4095,4095
4.048635962000844,902,4095,4095
4.051330966998648,4095,3344,3042
4.054024847999244,4095,4095,4095
4.056717103001574,4095,4095,4095
4.059411859001557,2391,4095,4095
4.062102488998789,613,4095,4095
4.064796161001141,432,4095,4095
4.067490707999241,441,4095,4095
4.070181380000577,4095,4095,4095
4.072873719000199,4095,4095,4095
4.075569141001324,4095,3794,3568
4.07826322999972,3943,4095,4095
4.080955985999026,1780,4095,4095
4.083651616001589,441,4095,4095
4.086346205000154,432,4095,4095
4.08903871000075,1450,3685,3808
4.091732256998512,4095,431,2591
4.094427554999129,4095,4095,4095
4.097122685001523,4095,4095,4095
4.0998188570010825,2743,4095,4095
4.1025144459999865,845,4095,4095
4.105206493000878,433,4095,4095
4.107900707000226,470,4095,4095
4.110595461999765,4095,4095,4095
4.1132873429996835,4095,4095,4095
4.115981973001908,4095,4095,4095
4.118678562001151,3797,4095,4095
4.1213718590006465,1146,684,2589
4.124067490000016,442,4095,4095
4.12675986999966,438,4095,4095
4.129452750999917,2192,4095,4095
4.132144547998905,4095,2815,3248
4.134834970001975,4095,4095,4095
4.137525434001873,4095,4095,4095
4.140221522000502,2559,4095,4095
4.14291632000095,729,4095,4095
4.145607491998817,435,4095,4095
4.148296497001866,855,4095,4095
4.150991169000918,4095,4095,4095
4.1537136750012,4095,4095,4095
4.156409014001838,4095,4095,4095
4.159104061000107,3600,4095,4095
4.161801649999688,993,4095,3830
4.164495238001109,443,4095,4095
4.167190827000013,436,4095,4095
4.169888373999129,3845,4095,4095
4.172580046000803,4095,4095,4095
4.175276844001928,4095,4095,4095
4.177973057001509,4095,4095,4095
4.180665228999715,2345,4095,4095
4.183360568000353,565,4095,4095
4.18605528199987,437,4095,4095
4.188747454001714,1511,4095,4095
4.191443043000618,4095,2797,2914
4.194140840001637,4095,4095,4095
4.196835220998764,4095,4095,4095
4.199531393001962,3371,4095,4095
4.202227523001056,1214,4095,4095
4.20491807000144,436,4095,4095
4.207612116999371,430,4095,4095
4.210306581000623,4095,4095,4095
4.212996419999399,4095,4095,4095
4.215691467001307,4095,4095,3755
4.218386181000824,4095,4095,4095
4.221078435999516,1917,4095,4095
4.223773983998399,447,4095,4095
4.226468239001406,438,4095,4095
4.229162368999823,1515,2755,3110
4.231852832999721,4095,688,2633
4.2345471720000205,4095,4095,4095
4.2372397190010815,4095,4095,4095
4.239928474999033,2782,4095,4095
4.242620605000411,902,4095,4095
4.245311152000795,429,4095,4095
4.248005282999657,477,4095,4095
4.250698662999639,4095,4095,4095
4.253388584998902,4095,4095,4095
4.256082257001253,4095,4095,4095
4.258779471001617,3739,4095,4095
4.261472268000944,1105,655,2608
4.264165524000418,432,4095,4095
4.266861279000295,434,4095,4095
4.269552660000045,2090,4095,4095
4.272245124000619,4095,3107,3309
4.274937836999015,4095,4095,4095
4.277630258999125,4095,4095,4095
4.2803484319993,2321,4095,4095
4.283071229001507,509,4095,4095
4.285765317999903,438,4095,4095
4.288459614999738,816,4095,4095
4.291155537001032,4095,4095,4095
4.293849208999745,4095,4095,4095
4.2965396309991775,4095,4095,4095
4.299233469999308,3185,4095,4095
4.30192793400056,563,4095,4095
4.304618439000478,433,4095,4095
4.307309235999128,432,4095,4095
4.31000078299985,3458,4095,4095
4.312690539001778,4095,4095,4095
4.315383960998588,4095,4095,4015
4.31807784099874,3998,4095,4095
4.320770139001979,1817,4095,4095
4.323465269000735,444,4095,4095
4.326158566000231,435,4095,4095
4.328849738001736,1264,4095,4095
4.3315509099993506,4095,2847,2913
4.334244623998529,4095,4095,4095
4.336933712998871,4095,4095,4095
4.339624093001476,2599,4095,4095
4.342316432001098,720,4095,4095
4.345008020998648,435,4095,4095
4.3477029019995825,430,4095,4095
4.350397739999607,4095,4095,4095
4.353089787000499,4095,4095,4095
4.35578625099879,4095,4095,3692
4.358480965001945,3631,4095,4095
4.361171762000595,1568,4095,4095
4.363865226001508,440,4095,4095
4.3665584810005384,432,4095,4095
4.369248319999315,1315,3004,3155
4.371943075999297,4095,594,2646
4.374636789998476,4095,4095,4095
4.377348712001549,4095,4095,4095
4.380051841999375,2452,4095,4095
4.382749139000225,615,4095,4095
4.385444103001646,432,4095,4095
4.388140192000719,439,4095,4095
4.390835447000427,4095,4095,4095
4.393527660999098,4095,4095,4095
4.396222041999863,4095,4095,4095
4.398916296999232,3497,4095,4095
4.4016065940013505,866,669,2630
4.4042994330011425,432,4095,4095
4.4069930629993905,432,4095,4095
4.40970986100001,1981,4095,4095
4.412404283000797,4095,3385,3403
4.415098454999679,4095,4095,4095
4.417795084998943,4095,4095,4095
4.420487507999496,1984,4095,4095
4.423197471001913,449,4095,4095
4.425899101999676,433,4095,4095
4.428593066000758,720,4095,4095
4.431285820999619,4095,4095,4095
4.433977117998438,4095,4095,4095
4.436668499001826,4095,4095,4095
4.4393613370011735,2656,4095,4095
4.442053176000627,257,4095,4095
4.444744389998959,432,4095,4095
4.4474389370006975,435,4095,4095
4.450136900999496,3324,4095,4095
4.452939239999978,4095,4095,4095
4.455663246000768,4095,2752,3227
4.458361501001491,3495,4095,4095
4.461057131000416,1423,4095,4095
4.46375492900188,433,4095,4095
4.466449016999832,433,4095,4095
4.469142023001041,1418,4095,4095
4.471835320000537,4095,777,2501
4.474529200000688,4095,4095,4095
4.477223747999233,4095,4095,4095
4.4799207110008865,2221,4095,4095
4.4826199669987545,463,4095,4095
4.485311639000429,427,4095,4095
4.4880068940001365,390,4095,4095
4.490704441999696,4095,4095,4095
4.49339490499915,4095,4095,4095
4.496088494001015,4095,4095,4095
4.49878341600197,3222,4095,4095
4.501474879998568,665,2239,2672
4.504167469000095,432,4095,4095
4.506862308000564,435,4095,4095
4.509554479998769,1852,2752,3252
4.5122486100008246,4095,2002,3035
4.514948448999348,4095,4095,4095
4.517644913001277,4095,4095,4095
4.5204530020018865,4095,4095,4095
4.523148923999543,2663,4095,4095
4.525846470998658,1358,4095,4095
4.52853980999862,1830,4095,4095
4.531233357000019,4095,4095,4095
4.533927404001588,4095,4095,4095
4.536620743001549,4095,4095,4095
4.539314165001997,2775,4095,4095
4.542003087000921,3,4091,3632
4.544694093001453,432,4095,4095
4.547388139999384,431,4095,4095
4.550081853998563,2085,4095,4095
4.552776650998567,4095,4095,4095
4.555474990000221,4095,4095,4095
4.558171328000753,2341,4095,4095
4.560862792000989,555,4095,4095
4.563557297999068,431,4095,4095
4.566249928000616,425,4095,4095
4.5689407249992655,774,4095,4095
4.571633897001448,4095,4085,3776
4.5746081530014635,4095,4095,4095
4.577308576001087,4095,4095,4095
4.5800059140019584,2015,4095,4095
4.582703127998684,461,4095,4095
4.5854001750012685,420,4095,4095
4.58809776400085,422,4095,4095
4.590792561000853,4095,4095,4095
4.593484274999355,4095,4095,4095
4.596178988998872,4095,4095,4095
4.5988723279988335,3395,4095,4095
4.6015639580000425,767,2093,2641
4.60425738000049,441,4095,4095
4.606952926998929,432,4095,4095
4.609644141000899,1615,2926,3366
4.6123712720000185,4095,2207,3119
4.615068818999134,4095,4095,4095
4.617832283001917,4095,4095,4095
4.620551954998518,2147,4095,4095
4.62324825199903,459,4095,4095
4.625946591000684,437,4095,4095
4.628635095999925,646,4095,4095
4.631328226998448,4095,4095,4095
4.634018691001984,4095,4095,4095
4.636705570999766,4095,4095,4095
4.639394743000594,3169,4095,4095
4.642083290000301,608,4095,3675
4.6447709210006,442,4095,4095
4.647458218001702,439,4095,4095
4.650149306999083,3267,4095,4095
4.652841062001244,4095,4095,4095
4.655532609001966,4095,4095,4095
4.658223114998691,4095,4095,4095
4.660911203001888,2019,4095,4095
4.663601126001595,454,4095,4095
4.666291838999314,433,4095,4095
4.6689791360004165,1202,4095,4095
4.671667433998664,4095,4095,4049
4.674355731000105,4095,4095,4095
4.677042860999791,4095,4095,4095
4.679731741998694,3102,4095,4095
4.682420205001108,989,4095,4095
4.685108753001259,438,4095,4095
4.687801591000607,447,4095,4095
4.690492263001943,4059,4095,4095
4.693180269001459,4095,4095,4095
4.695869023998966,4095,2778,3270
4.698557405001338,4055,4095,4095
4.701244410000072,1912,4095,4095
4.703935582001577,449,4095,4095
4.706624588001432,437,4095,4095
4.709311593000166,1647,4095,4095
4.711999514998752,4095,753,2485
4.714689062999241,4095,4095,4095
4.717380318001233,4095,4095,4095
4.720073032000073,2747,4095,4095
4.7227629119988705,883,4095,4095
4.725450293000904,435,4095,4095
4.728139006001584,430,4095,4095
4.730827054001566,4095,4095,4095
4.733514391999051,4095,4095,4095
4.73621752300096,4095,4095,4095
4.738918528000795,3677,4095,4095
4.741612574998726,1088,2992,3350
4.744316581000021,435,4095,4095
4.7470104200001515,432,4095,4095
4.749781049999001,1648,2759,3250
4.752490306000254,4095,1977,3035
4.755188269999053,4095,4095,4095
4.7578839829984645,4095,4095,4095
4.760576614000456,2329,4095,4095
4.763269994000439,574,4095,4095
4.765964000001986,434,4095,4095
4.76865525500034,678,4095,4095
4.771351177001634,4095,4095,4095
4.774044682999374,4095,4095,4095
4.77673718799997,4095,4095,4095
4.77943344400046,3360,4095,4095
4.782133407999936,729,3306,3481
4.784827245999622,430,4095,4095
4.787523585000599,433,4095,4095
4.790218966001703,3056,4095,4095
4.79291013799957,4095,4095,4095
4.795606060000864,4095,4095,4095
4.798300857000868,4048,4095,4095
4.8009950289997505,1904,4095,4095
4.803691493001679,445,4095,4095
4.806386624000879,438,4095,4095
4.80907725400175,1098,4095,4095
4.811770926000463,4095,4095,3903
4.814471432000573,4095,4095,4095
4.8171673950018885,4095,4095,4095
4.8198646509990795,2607,4095,4095
4.822558989999379,694,4095,4095
4.825250120000419,433,4095,4095
4.827945708999323,444,4095,4095
4.830639798001357,3721,4095,4095
4.833340428001975,4095,4095,4095
4.836034600000858,4095,3314,3475
4.8387268139995285,3499,4095,4095
4.841417694999109,1456,4095,4095
4.844109867000952,439,4095,4095
4.846802496998862,432,4095,4095
4.84949521100134,1369,4095,3855
4.852187299999059,4095,421,2529
4.854883054998936,4095,4095,4095
4.857574101999489,4095,4095,4095
4.860268857999472,2237,4095,4095
4.862962612998672,487,4095,4095
4.865653410000959,432,4095,4095
4.86838308300139,415,4095,4095
4.871077670999512,4095,4095,4095
4.87379488499937,4095,4095,4095
4.876492056999268,4095,4095,4095
4.879190938001557,3306,4095,4095
4.8818864849999954,695,587,2559
4.88457732399911,432,4095,4095
4.887272371001018,432,4095,4095
4.889965835001931,1776,4095,4095
4.892658715001744,4095,2981,3321
4.89535409599921,4095,4095,4095
4.898049101000652,4095,4095,4095
4.900740439999936,2121,4095,4095
4.903435487001843,464,4095,4095
4.906129033999605,436,4095,4095
4.90882454000166,679,4095,4095
4.911523170001601,4095,4095,4095
4.914218633999553,4095,4095,4095
4.916912805998436,4095,4095,4095
4.919609060998482,3055,4095,4095
4.922304525000072,542,4095,4095
4.924996072000795,435,4095,4095
4.927688453000883,439,4095,4095
4.930383124999935,3126,4095,4095
4.933075214001292,4095,4095,4095
4.935767885999667,4095,4095,4095
4.938459807999607,3724,4095,4095
4.941153897001641,1657,4095,4095
4.943847736001771,444,4095,4095
4.946539491000294,432,4095,4095
4.949230038000678,1065,4095,4095
4.951926835001359,4095,3254,3088
4.9546214239999244,4095,4095,4095
4.957312387999991,4095,4095,4095
4.960005267999804,2352,4095,4095
4.962699106999935,528,4095,4095
4.965388904001884,418,4095,4095
4.968081618000724,438,4095,4095
4.970776999001828,3610,4095,4095
4.973470920998807,4095,4095,4095
4.976167592998536,4095,3841,3667
4.97886109799947,3395,4095,4095
4.981552061999537,1295,4095,4095
4.984245275998546,439,4095,4095
4.9869387809994805,432,4095,4095
4.9896313280005415,1138,3468,3699
4.992357000999618,4095,437,2624
4.995052048001526,4095,4095,4095
4.997771053000179,4095,4095,4095
5.00046255900088,2013,4095,4095
5.003154939000524,449,4095,4095
5.005908235998504,432,4095,4095
5.008635784000944,412,4095,4095
5.0113317059986,4095,4095,4095
5.0140244610010996,4095,4095,4095
5.016717800001061,4095,4095,4095
5.019414056001551,3104,4095,4095
5.022325770001771,741,1255,2893
5.0250546089991985,441,4095,4095
5.027763572001277,445,4095,4095
5.030477995002002,3984,4095,4095
5.033180624999659,4095,4095,4095
5.035905963999539,4095,4095,4095
5.038633970001683,4095,4095,4095
5.041327683000418,4095,4095,4095
5.044020230001479,2477,4095,4095
5.046712652998394,698,4095,4095
5.049406699999963,1900,4095,4095
5.052101247001701,4095,1902,2672
5.054796626998723,4095,4095,4095
5.057488841001032,4095,4095,4095
5.060181929999089,1835,4095,4095
5.062876351999876,433,4095,4095
5.065566482000577,430,4095,4095
5.068378905001737,416,4095,4095
5.071252118999837,2714,4095,4095
5.073952708000434,4095,4095,4095
5.0766401719993155,4016,4095,4095
5.079332927001815,1968,4095,4095
5.082026099000359,0,579,2531
5.0847110629983945,430,4095,4095
5.087401818000217,431,4095,4095
5.09009849100039,1399,4095,4095
5.092787038000097,4095,3071,3302
5.095476751001115,4095,4095,4095
5.09816384000078,3950,4095,4095
5.100853971001925,1855,4095,4095
5.103543642999284,442,4095,4095
5.106232189998991,433,4095,4095
5.108918778998486,592,4095,4095
5.111606409001979,4095,4095,4095
5.114294915001665,4095,4095,4095
5.116981836999912,4095,4095,4095
5.11967525900036,3118,4095,4095
5.12236830600159,549,3322,3447
5.125056560998928,438,4095,4095
5.127746234000369,433,4095,4095
5.1304360309986805,2870,4095,4095
5.133124785999826,4095,4095,4095
5.135833374999493,4095,4095,4095
5.138538588998927,4095,4095,4095
5.141233094000199,1926,4095,4095
5.1439261000014085,445,4095,4095
5.146617980000883,432,4095,4095
5.149309069001902,1118,4095,4095
5.15200086600089,4095,4095,3952
5.154695747001824,4095,4095,4095
5.157390126998507,4095,4095,4095
5.160085007999442,2887,4095,4095
5.162780304999615,915,4095,4095
5.165474227000232,433,4095,4095
5.168172231999051,443,4095,4095
5.170869862999098,3935,4095,4095
5.17356324299908,4095,4095,4095
5.1762596650005435,4095,3281,3426
5.178954295999574,3982,4095,4095
5.181647260000318,1841,4095,4095
5.184375306998845,443,4095,4095
5.187070979001874,434,4095,4095
5.189765734001412,1242,3294,3632
5.192458448000252,4095,463,2559
5.195154329001525,4095,4095,4095
5.197855458998674,4095,4095,4095
5.200549797998974,2711,4095,4095
5.2032471370002895,858,4095,4095
5.20594168399839,437,4095,4095
5.2086340640016715,448,4095,4095
5.211327278000681,4095,4095,4095
5.2140238669999235,4095,4095,4095
5.216715246999229,4095,4095,4095
5.219412045000354,3693,4095,4095
5.222107342000527,1083,671,2505
5.224794472000212,441,4095,4095
5.227486478001083,434,4095,4095
5.2301843159984855,1858,4095,4095
5.232880529998511,4095,2914,3265
5.235575661001349,4095,4095,4095
5.238269083001796,4095,4095,4095
5.240961629999219,2384,4095,4095
5.243653844001528,598,4095,4095
5.246344807001151,431,4095,4095
5.249035813001683,731,4095,4095
5.251726526999846,4095,4095,4095
5.254422781999892,4095,4095,4095
5.257113788000424,4095,4095,4095
5.259808168000745,3520,4095,4095
5.2625066740001785,789,4095,3760
5.265199679000943,433,4095,4095
5.267896100998769,434,4095,4095
5.270590148000338,3296,4095,4095
5.273280695000722,4095,4095,4095
5.275976158998674,4095,4095,4095
5.278672581000137,4095,4095,4095
5.281364670001494,2126,4095,4095
5.284059550998791,458,4095,4095
5.286754764001671,432,4095,4095
5.289447227998608,1233,4095,4095
5.292140691999521,4095,3916,3705
5.294840531001682,4095,4095,4095
5.2975347860010515,4095,4095,4095
5.30023091700059,2953,4095,4095
5.3029270469996845,976,4095,4095
5.305619385999307,432,4095,4095
5.308322933000454,435,4095,4095
5.311021230001643,3966,4095,4095
5.313739236000401,4095,4095,4095
5.316433200001484,4095,3888,3632
5.319129079998675,3696,4095,4095
5.321824252001534,1619,4095,4095
5.324518215998978,436,4095,4095
5.327216263001901,432,4095,4095
5.329910352000297,1164,2943,3093
5.3325975660009135,4095,593,2624
5.335289946000557,4095,4095,4095
5.337986118000117,4095,4095,4095
5.340678124000988,2303,4095,4095
5.343369212998368,507,4095,4095
5.346061551001185,432,4095,4095
5.348753932001273,409,4095,4095
5.351450187001319,4095,4095,4095
5.354145276000054,4095,4095,4095
5.356839031999698,4095,4095,4095
5.359535244999279,3315,4095,4095
5.362229541999113,663,638,2544
5.364919423001993,433,4095,4095
5.367613637001341,432,4095,4095
5.3703074760014715,1657,4095,4095
5.37299877300029,4095,3170,3311
5.375692485999025,4095,4095,4095
5.378387409000425,4095,4095,4095
5.381077914000343,1991,4095,4095
5.383771378001256,448,4095,4095
5.386465507999674,433,4095,4095
5.389160638998874,641,4095,4095
5.391856977999851,4095,4095,4095
5.394549440999981,4095,4095,4095
5.397242322000238,4095,4095,4095
5.399938202001067,3018,4095,4095
5.40263295800105,533,4095,4095
5.407189884001127,432,4095,4095
5.4098931810003705,1418,4095,3873
5.412587020000501,4095,384,2518
5.415283982998517,4095,4095,4095
5.417978905999917,4095,4095,4095
5.420717535998847,2642,4095,4095
5.423428750000312,693,4095,4095
5.426125547000993,432,4095,4095
5.42881784400015,437,4095,4095
5.431513141000323,4095,4095,4095
5.4342096879991,4095,4095,4095
5.436896652001451,4095,4095,4095
5.439594824001688,3461,4095,4095
5.442290121998667,851,605,2559
5.444976585000404,434,4095,4095
5.447668674001761,433,4095,4095
5.450366054999904,1711,4095,4095
5.45306047700069,4095,3219,3339
5.455751648998557,4095,4095,4095
5.458442946001014,4095,4095,4095
5.461132993001229,1993,4095,4095
5.463828665000619,445,4095,4095
5.466523253999185,432,4095,4095
5.469214093001938,611,4095,4095
5.471908472998621,4095,4095,4095
5.474604062001163,4095,4095,4095
5.477295733999199,4095,4095,4095
5.479990155999985,2758,4095,4095
5.482683995000116,345,4095,4095
5.485372792001726,432,4095,4095
5.488066131001688,433,4095,4095
5.490762052999344,2758,4095,4095
5.493452058999537,4095,4095,4095
5.496146522000345,4095,4095,4095
5.498838860999967,3730,4095,4095
5.501530616998934,1655,4095,4095
5.5042242470008205,439,4095,4095
5.506919586001459,432,4095,4095
5.509609966000426,1022,4095,4095
5.512313679999352,4095,3519,3552
5.515009768998425,4095,4095,4095
5.517731982999976,4095,4095,4095
5.520424572001502,2387,4095,4095
5.523120827001549,537,4095,4095
5.5258148739994795,432,4095,4095
5.528508212999441,443,4095,4095
5.531203884998831,3621,4095,4095
5.53389609900114,4095,4095,4095
5.536587395999959,4095,4095,3845
5.539278192998609,3758,4095,4095
5.541972156999691,1873,4095,4095
5.5446682879992295,497,4095,4095
5.547362501001771,437,4095,4095
5.550056464999216,1887,2909,3094
5.552748886999325,4095,639,2591
5.555441393000365,4095,4095,4095
5.558133023001574,4095,4095,4095
5.560824194999441,4095,4095,4095
5.563515701000142,3232,4095,4095
5.56621154000095,944,4095,4095
5.568903503000911,598,4095,4095
5.571602134001296,4095,4095,4095
5.574297764000221,4095,4095,4095
5.576991435998934,4095,4095,4095
5.579685484000947,2352,4095,4095
5.582380281000951,0,709,2634
5.585075453000172,430,4095,4095
5.587772541999584,431,4095,4095
5.590469047001534,921,4095,4095
5.5931625939992955,3945,3065,3350
5.595857683001668,4095,4095,4095
5.5985498129994085,3003,4095,4095
5.601241861000744,1173,4095,4095
5.603937990999839,437,4095,4095
5.606633996998426,432,4095,4095
5.6093217939996975,528,4095,4095
5.612016590999701,4095,4095,4095
5.614713430000847,4095,4095,4095
5.617406893001316,4095,4095,4095
5.620103107001341,2733,4095,4095
5.622828529001708,363,4095,4095
5.625545909999346,433,4095,4095
5.628242664999561,437,4095,4095
5.630937795998761,3086,4095,4095
5.633629010000732,4095,4095,4095
5.636347139999998,4095,4095,3602
5.639043728999241,3801,4095,4095
5.641764609001257,1752,4095,4095
5.64445236499887,448,4095,4095
5.647146161998535,439,4095,4095
5.649839001001965,1267,4095,4095
5.652532173000509,4095,1732,2658
5.655224137000914,4095,4095,4095
5.657919517001574,4095,4095,4095
5.6606058139987,2497,4095,4095
5.663297486000374,693,4095,4095
5.66599378400133,326,4095,4095
5.668686788998457,445,4095,4095
5.671380920000956,3920,4095,4095
5.674076092000178,4095,4095,4095
5.676769514000625,4095,4095,4095
5.679467228001158,3449,4095,4095
5.682162608001818,1413,4095,4095
5.684854989001906,437,4095,4095
5.687553452000429,434,4095,4095
5.690251915999397,1234,2469,3175
5.692944130001706,4095,1076,2773
5.695639634999679,4095,4095,4095
5.698334723998414,4095,4095,4095
5.70102618799865,2165,4095,4095
5.703722442998696,477,4095,4095
5.706416449000244,439,4095,4095
5.7091096629992535,499,4095,4095
5.7118074179998075,4095,4095,4095
5.7145016319991555,4095,4095,4095
5.717193636999582,4095,4095,4095
5.719886685001256,3210,4095,4095
5.722582982001768,643,1372,2915
5.725273862000904,434,4095,4095
5.727968867999152,422,4095,4095
5.730663790000108,2224,4095,4095
5.7333555039986095,4095,3453,3423
5.736050134000834,4095,4095,4095
5.738742681001895,4026,4095,4095
5.7414400199995725,1918,4095,4095
5.744132899999386,450,4095,4095
5.746825614001864,434,4095,4095
5.749519745000725,811,4095,4095
5.752212874998804,4095,4095,4095
5.754905089001113,4095,4095,4095
5.757597635998536,4095,4095,4095
5.76029518300129,2693,4095,4095
5.762990604998777,342,4095,4095
5.765721944000688,433,4095,4095
5.768437741000525,433,4095,4095
5.771148579999135,3332,4095,4095
5.77384833600081,4095,4095,4095
5.776544923999609,4095,2423,3178
5.779237347000162,3583,4095,4095
5.781932934998622,1582,4095,4095
5.784624482999789,442,4095,4095
5.787320988001738,432,4095,4095
5.790202077001595,1400,4095,4095
5.792905040998448,4095,437,2559
5.795599671000673,4095,4095,4095
5.798295134998625,4095,4095,4095
5.800987807000638,2326,4095,4095
5.803683812999225,574,4095,4095
5.806377734999842,432,4095,4095
5.80906882400086,475,4095,4095
5.811763204001181,4095,4095,4095
5.814460918001714,4095,4095,4095
5.817153381998651,4095,4095,4095
5.8207115969998995,3431,4095,4095
5.823458061000565,816,715,2679
5.826166400001966,433,4095,4095
5.828860531000828,453,4095,4095
5.831557535999309,4095,4095,4095
5.834254666999186,4095,4095,4095
5.836949339001876,4095,4095,4095
5.839644052000949,3491,4095,4095
5.842337599999155,894,3265,3376
5.845030772001337,432,4095,4095
5.847721526999521,437,4095,4095
5.850413490999927,1329,2736,3253
5.853105745998619,4095,1458,2897
5.855798626998876,4095,4095,4095
5.858495298998605,4095,4095,4095
5.8611875960014,2182,4095,4095
5.8638833520017215,467,4095,4095
5.866579399000329,432,4095,4095
5.869274654000037,511,4095,4095
5.871971659998962,4095,4095,4095
5.8746611649985425,4095,4095,4095
5.877347337001993,4095,4095,4095
5.880040883999754,3245,4095,4095
5.882736223000393,638,1718,3025
5.885428353998577,440,4095,4095
5.888122109001415,436,4095,4095
5.890815740000107,2461,4095,4095
5.893508452998503,4095,3024,3279
5.896205166998698,4095,4095,4095
5.898902338998596,4095,4095,4095
5.90159459500137,2058,4095,4095
5.904290016998857,448,4095,4095
5.90698510600123,434,4095,4095
5.909676069000852,896,4095,4095
5.9124039499984065,4095,4095,4095
5.915098122000927,4095,4095,4095
5.9177934190011,4095,4095,4095
5.920486216000427,3163,4095,4095
5.923181555001065,912,4095,4095
5.925875143999292,434,4095,4095
5.928569316001813,443,4095,4095
5.931268029999046,3538,4095,4095
5.933964701998775,4095,4095,4095
5.936656248999498,4095,2679,3255
5.939350255001045,4095,4095,4095
5.9420431350008585,2001,4095,4095
5.944734931999847,453,4095,4095
5.947427938001056,438,4095,4095
5.950122360001842,1521,4095,4095
5.952809698999772,4095,1139,2586
5.955502246000833,4095,4095,4095
5.9581972929991025,4095,4095,4095
5.960890757000016,2882,4095,4095
5.963587344998814,949,4095,4095
5.966281059001631,432,4095,4095
5.96897427300064,451,4095,4095
5.971667028999946,4095,4095,4095
5.97436132599978,4095,4095,4095
5.977052163998451,4095,4095,4095
5.979746919998433,3534,4095,4095
5.982443050001166,1074,3623,3504
5.985135263999837,439,4095,4095
5.987830228001258,437,4095,4095
5.990525817000162,1311,2742,3248
5.993218947001878,4095,1492,2867
5.995914911,4095,4095,4095
5.998609041998861,4095,4095,4095
6.001300339001318,2115,4095,4095
6.003994843998953,457,4095,4095
6.006744850001269,432,4095,4095
6.0094725220005785,483,4095,4095
6.012168402001407,4095,4095,4095
6.014863199001411,4095,4095,4095
6.01755587200023,4095,4095,4095
6.020249584998965,2902,4095,4095
6.022942548999708,438,2736,3291
6.025665180000942,438,4095,4095
6.028395935001754,432,4095,4095
6.0310934410008485,2693,4095,4095
6.033789113000239,4095,4095,3794
6.0364806600009615,4095,4095,4095
6.039175915000669,3814,4095,4095
6.041869587999827,1683,4095,4095
6.044595051000215,437,4095,4095
6.047313014998508,432,4095,4095
6.0500058959987655,1040,4095,4095
6.052699568001117,4095,4095,3948
6.055394740000338,4095,4095,4095
6.058090579001146,4095,4095,4095
6.060783001001255,3119,4095,4095
6.063479298001766,1293,4095,4095
6.066172095001093,446,4095,4095
6.068865892000758,510,4095,4095
6.0715624389995355,4095,4095,4095
6.074257945001591,4095,4095,4095
6.076950533999479,4095,4095,4095
6.079645164001704,4095,4095,4095
6.082340919998387,4095,4095,4095
6.0850329249988135,2031,4095,4095
6.087728597001842,463,4095,4095
6.090427893999731,1635,2811,3103
6.093124233000708,4095,500,2587
6.095821030001389,4095,4095,4095
6.09851828599858,4095,4095,4095
6.101210666001862,1901,4095,4095
6.103906462998566,439,4095,4095
6.106603260999691,428,4095,4095
6.1092955989988695,427,4095,4095
6.111989354998514,3376,4095,4095
6.1146867770003155,4095,4095,4095
6.117377449001651,4005,4095,4095
6.120072787998652,1941,4095,4095
6.122771459999058,0,603,2599
6.125464256998384,430,4095,4095
6.128159804000461,433,4095,4095
6.130854517999978,1239,4095,4095
6.133546439999918,4095,3728,3527
6.1362411539994355,4095,4095,4095
6.138936325998657,3726,4095,4095
6.14163629000177,1711,4095,4095
6.144357670000318,438,4095,4095
6.147050883999327,433,4095,4095
6.1497660979985085,627,4095,4095
6.152462853999168,4095,4095,4095
6.155156442000589,4095,4095,4095
6.157850364001206,4095,4095,4095
6.160541119999834,2786,4095,4095
6.1632352090018685,384,4095,4095
6.165930339000624,436,4095,4095
6.168622469998809,437,4095,4095
6.171317766998982,3043,4095,4095
6.1740105640019465,4095,4095,4095
6.1767035689990735,4095,3219,3583
6.179400324999733,3887,4095,4095
6.182096705000731,1774,4095,4095
6.184790335999423,441,4095,4095
6.18748771600076,432,4095,4095
6.190183513001102,1196,4095,4095
6.192874726999435,4095,1235,2585
6.195568982999248,4095,4095,4095
6.19826319600179,4095,4095,4095
6.200955410000461,2667,4095,4095
6.203649498998857,818,4095,4095
6.206345878999855,432,4095,4095
6.209038010001677,443,4095,4095
6.211732140000095,3957,4095,4095
6.214429521001875,4095,4095,4095
6.217125568000483,4095,4095,4095
6.219823407001968,3669,4095,4095
6.222518121001485,1535,4095,3843
6.225210292999691,441,4095,4095
6.227939047999826,435,4095,4095
6.23064617899945,1317,2624,3185
6.233337975998438,4095,976,2749
6.236034023000684,4095,4095,4095
6.2387286119992496,4095,4095,4095
6.241419658999803,2484,4095,4095
6.2441147479985375,667,4095,4095
6.246807462001016,432,4095,4095
6.249500174999412,539,4095,4095
6.252192430998548,4095,4095,4095
6.2548835199995665,4095,4095,4095
6.257575482999528,4095,4095,4095
6.260269031001371,3494,4095,4095
6.262964993999049,909,1405,2931
6.265657166000892,443,4095,4095
6.268378421998932,437,4095,4095
6.271076218999951,2507,4095,4095
6.273773224998877,4095,3957,3527
6.276465522001672,4095,4095,4095
6.279158943998482,4095,4095,4095
6.28185907399893,2131,4095,4095
6.284554787998786,459,4095,4095
6.287250669000059,428,4095,4095
6.289945966000232,874,4095,4095
6.292637513000955,4095,4095,4095
6.295333685000514,4095,4095,4095
6.298028940000222,4095,4095,4095
6.300715321001917,3088,4095,4095
6.303411493001477,566,4095,4095
6.30610699799945,435,4095,4095
6.308801087001484,441,4095,4095
6.3114975089993095,3414,4095,4095
6.314197265000985,4095,4095,4095
6.316891811999085,4095,2545,3150
6.319588067999575,4005,4095,4095
6.322282822999114,1878,4095,4095
6.324973744998715,448,4095,4095
6.32766975100094,432,4095,4095
6.330364880999696,1397,4095,4095
6.333058053001878,4095,1015,2531
6.33575280900186,4095,4095,4095
6.338445564000722,4095,4095,4095
6.341138235999097,2705,4095,4095
6.34383353299927,861,4095,4095
6.346530121998512,437,4095,4095
6.349224918998516,447,4095,4095
6.3519170910003595,4095,4095,4095
6.354622596998524,4095,4095,4095
6.357318561000284,4095,4095,4095
6.360011108001345,3507,4095,4095
6.362704112998472,1012,3449,3461
6.365395952001563,437,4095,4095
6.368087457998627,434,4095,4095
6.370784170998377,1295,2863,3299
6.37347684300039,4095,1050,2771
6.376172641001176,4095,4095,4095
6.378870688000461,4095,4095,4095
6.381562942999153,2211,4095,4095
6.384257907000574,490,4095,4095
6.386953787001403,433,4095,4095
6.389645585000835,522,4095,4095
6.39237029799915,4095,4095,4095
6.395067386998562,4095,4095,4095
6.397762183998566,4095,4095,4095
6.400454982001975,3328,4095,4095
6.403149529000075,721,2182,3139
6.405844117001834,437,4095,4095
6.408538955998665,435,4095,4095
6.411237627999071,2559,4095,4095
6.4139326340009575,4095,3291,3397
6.41662384799929,4095,4095,4095
6.419318561002001,4095,4095,4095
6.422014234001836,1999,4095,4095
6.424706072000845,449,4095,4095
6.427401035998628,435,4095,4095
6.430129042000772,870,4095,4095
6.432832796999719,4095,4095,4095
6.435527510999236,4095,4095,4095
6.4382239330007,4095,4095,4095
6.4409179799986305,2619,4095,4095
6.4436172360001365,659,4095,4095
6.4463136580016,431,4095,4095
6.44901003799896,432,4095,4095
6.451697960001184,3343,4095,4095
6.454391048999241,4095,4095,4095
6.457085762998759,4095,2979,3318
6.459779477001575,3439,4095,4095
6.46247560700067,1361,4095,4095
6.465166154001054,431,4095,4095
6.467862534998858,431,4095,4095
6.470557999000448,1202,4095,4095
6.4732510870016995,4095,609,2491
6.475949051000498,4095,4095,4095
6.478644890001306,4095,4095,4095
6.4813387710019015,2074,4095,4095
6.48403352600144,455,4095,4095
6.486728198000492,436,4095,4095
6.489420328998676,442,4095,4095
6.492113750999124,3882,4095,4095
6.494805048001581,4095,4095,4095
6.497498552998877,4095,4095,4095
6.500192433999473,3008,4095,4095
6.502886981001211,544,1385,2559
6.505581444998825,431,4095,4095
6.508276283999294,432,4095,4095
6.510970538998663,1307,3703,3712
6.513664336001966,4095,2303,3109
6.516388050000387,4095,4095,4095
6.519083389001025,4095,4095,4095
6.521780061000754,2209,4095,4095
6.524466733000736,589,4095,4095
6.527159821998794,439,4095,4095
6.529859035999834,816,4095,4095
6.532551415999478,4095,4095,4095
6.535247880001407,4095,4095,4095
6.537944301999232,4095,4095,4095
6.540637474001414,4095,4095,4095
6.5433323130018834,2491,4081,3807
6.546026276999328,1453,4095,4095
6.54871782400005,464,4095,4095
6.551412537999568,3778,4095,4095
6.554107918000227,4095,4095,3693
6.5567991319985595,4095,4095,4095
6.559490761999768,4095,4095,4095
6.562181893001252,2028,4095,4095
6.564873773000727,442,4095,4095
6.567568361999292,432,4095,4095
6.570262534001813,653,4095,4095
6.572958581000421,4095,4095,4095
6.575655628999812,4095,4095,4095
6.57835017600155,3498,4095,4095
6.581041888999607,1419,4095,4095
6.583735561998765,351,4095,4095
6.586428524999064,432,4095,4095
6.5891191970004,430,4095,4095
6.591811869999219,2322,4095,4095
6.594504791999498,4095,4095,4095
6.597196755999903,3420,3002,3381
6.59989009399942,2499,4095,4095
6.602584016000037,817,4095,4095
6.605278480001289,430,4095,4095
6.607974694001314,433,4095,4095
6.610670199999731,1114,4095,4095
6.613361121999333,4095,707,2515
6.616055501999654,4095,4095,4095
6.618751008001709,4095,4095,4095
6.621442930001649,2202,4095,4095
6.624135976999241,490,4095,4095
6.626832482001191,434,4095,4095
6.6295235290017445,452,4095,4095
6.632247868001286,4095,4095,4095
6.634954789999028,4095,4095,4095
6.637648838001041,4095,4095,4095
6.64036901000145,3382,4095,4095
6.64306334900175,758,675,2553
6.645792645998881,442,4095,4095
6.648486567999498,435,4095,4095
6.651178364998486,1633,4095,4095
6.653869536999991,4095,2678,3206
6.656562750999001,4095,4095,4095
6.659255298000062,4095,4095,4095
6.661947178999981,2142,4095,4095
6.664642101000936,467,4095,4095
6.667339814001025,435,4095,4095
6.670033237001917,645,4095,4095
6.672723283998494,4095,4095,4095
6.675417998001649,4095,4095,4095
6.678112085999601,4095,4095,4095
6.680803841998568,3214,4095,4095
6.683498472000792,639,3565,3525
6.68619772799866,433,4095,4095
6.688890025001456,437,4095,4095
6.691585946999112,2923,4095,4095
6.694279661001929,4095,4095,4095
6.696973665999394,4095,4095,4095
6.6996685470003285,4095,4095,4095
6.70236313499845,2014,4095,4095
6.705054182999447,461,4095,4095
6.707749188000889,437,4095,4095
6.710444276999624,1173,4095,4095
6.713136698999733,4095,4095,3898
6.715830995999568,4095,4095,4095
6.718525292999402,4095,4095,4095
6.721215924000717,2943,4095,4095
6.723907304000022,1057,4095,4095
6.726602768001612,434,4095,4095
6.729294397999183,443,4095,4095
6.731989570998849,3850,4095,4095
6.73468428400156,4095,4095,4095
6.7373700399984955,4095,4070,3659
6.7400630449992605,3888,4095,4095
6.7427568009989045,1802,4095,4095
6.745449515001383,448,4095,4095
6.748143770000752,433,4095,4095
6.750841900000523,1121,3649,3821
6.753533572999004,4095,597,2611
6.756226828001672,4095,4095,4095
6.758917584000301,4095,4095,4095
6.761609256001975,2621,4095,4095
6.764300885999546,806,4095,4095
6.76699568299955,442,4095,4095
6.769714271998964,468,4095,4095
6.772406028001569,4095,4095,4095
6.775100200000452,4095,4095,4095
6.777793871999165,4095,4095,4095
6.780485418999888,3634,4095,4095
6.783177798999532,1104,689,2549
6.785871222000424,446,4095,4095
6.788561476998439,442,4095,4095
6.791254649000621,1773,4095,4095
6.7939492799996515,4095,2894,3293
6.7966418270007125,4095,4095,4095
6.799335332001647,4095,4095,4095
6.802029921000212,2385,4095,4095
6.804722717999539,605,4095,4095
6.807415890001721,432,4095,4095
6.8101083539986575,687,4095,4095
6.812796276000881,4095,4095,4095
6.815490157001477,4095,4095,4095
6.818185203999747,4095,4095,4095
6.820875708999665,3338,4095,4095
6.823572131001129,710,4009,3664
6.826264177998382,433,4095,4095
6.8289544340004795,436,4095,4095
6.831649063999066,2843,4095,4095
6.834371195000131,4095,4095,3603
6.8370734919990355,4095,4095,4095
6.839765081000223,3993,4095,4095
6.842461710999487,1877,4095,4095
6.845153300000675,445,4095,4095
6.847846764001588,433,4095,4095
6.850538393999159,1072,4095,4095
6.853228315998422,4095,3186,3045
6.855916863998573,4095,4095,4095
6.858612743999402,4095,4095,4095
6.861307125000167,2727,4095,4095
6.8639988799986895,895,4095,4095
6.866693969001062,433,4095,4095
6.869384933001129,444,4095,4095
6.872078271000646,3675,4095,4095
6.8747711930009245,4095,4095,4095
6.8774618659990665,4095,3791,3669
6.880154996000783,3789,4095,4095
6.88284675199975,1744,4095,4095
6.885536090001551,448,4095,4095
6.888228761999926,432,4095,4095
6.890922392998618,1082,3154,3147
6.893613481999637,4095,368,2525
6.8963169870003185,4095,4095,4095
6.899011533998419,4095,4095,4095
6.901730789999419,2519,4095,4095
6.904421711999021,683,4095,4095
6.9071165089990245,438,4095,4095
6.9098098059985205,462,4095,4095
6.912499228001252,4095,4095,4095
6.915191316998971,4095,4095,4095
6.917895489001239,4095,4095,4095
6.920587870001327,3354,4095,4095
6.923281458999554,714,578,2619
6.925976464000996,441,4095,4095
6.928666094001528,433,4095,4095
6.931360308000876,1535,4095,4095
6.934061814001325,4095,2110,3082
6.936753027999657,4095,4095,4095
6.9394471580017125,4095,4095,4095
6.942142330000934,1968,4095,4095
6.944832585999393,449,4095,4095
6.947526674000983,438,4095,4095
6.950218597001367,560,4095,4095
6.952909102001286,4095,4095,4095
6.955599066001014,4095,4095,4095
6.958288155001355,4095,4095,4095
6.960979160001443,2841,4095,4095
6.963669831999141,431,4095,4095
6.966364296000393,433,4095,4095
6.969053426000755,436,4095,4095
6.971746639999765,2646,4095,4095
6.974441521000699,4095,4095,3906
6.977131775998714,4095,4095,4095
6.979825865000748,3995,4095,4095
6.982517704000202,1939,4095,4095
6.985209209000459,457,4095,4095
6.9879057979997015,440,4095,4095
6.990601220000826,1264,4095,4095
6.99329143399882,4095,4095,3850
6.9959851060011715,4095,4095,4095
6.9986808610010485,4095,4095,4095
7.001372659000481,4095,4095,4095
7.004066330999194,2956,4095,4095
7.00675962799869,1535,4095,4095
7.009498758001428,1125,4095,4095
7.012227555998834,4095,4095,4095
7.014923727998394,4095,4095,4095
7.017618817000766,4095,4095,4095
7.020324197001173,4095,4095,4095
7.023021952998533,2037,4095,4095
7.025740790999407,442,4095,4095
7.02843233800013,434,4095,4095
7.031126136000239,912,2459,3138
7.033821058001195,4095,1043,2759
7.0365409799997,4095,4095,4095
7.039244359999429,3430,4095,4095
7.041940073999285,1247,4095,4095
7.0446309129984,434,4095,4095
7.047324210001534,428,4095,4095
7.050021090999508,318,4095,4095
7.052730513001734,3441,4095,4095
7.055436185000872,4095,4095,4095
7.05812910700115,4095,4095,4095
7.060820946000604,2241,4095,4095
7.063512493001326,48,1264,2838
7.06620695699894,434,4095,4095
7.068898587000149,433,4095,4095
7.071593093001866,2098,4095,4095
7.074286139999458,4095,4095,3749
7.076975895000942,4095,4095,4095
7.079670609000459,4095,4095,4095
7.082365948001097,1990,4095,4095
7.085058619999472,455,4095,4095
7.087753458999941,433,4095,4095
7.090448130998993,811,4095,4095
7.093139552998764,4095,4095,4095
7.095830892001686,4095,4095,4095
7.098527022000781,4095,4095,4095
7.101218528001482,3232,4095,4095
7.103913408001972,683,4095,4095
7.106605164000939,438,4095,4095
7.10929679399851,441,4095,4095
7.111991800000396,3382,4095,4095
7.114688138000929,4095,4095,4095
7.11738197700106,4095,2703,3607
7.1200769409988425,4095,4095,4095
7.122771820999333,2032,4095,4095
7.1254637019992515,459,4095,4095
7.128158332001476,436,4095,4095
7.130852837999555,1347,4095,4095
7.133544468000764,4095,2054,2761
7.136234515000979,4095,4095,4095
7.138928771000792,4095,4095,4095
7.141619942998659,3133,4095,4095
7.144325949000631,1126,4095,4095
7.14702262100036,442,4095,4095
7.149743376001425,452,4095,4095
7.152437881999504,4095,4095,4095
7.155132970001432,4095,4095,4095
7.157826809001563,4095,4095,4095
7.160517814998457,4080,4095,4095
7.163208237001527,1413,3184,3403
7.165898784001911,455,4095,4095
7.1685879139986355,442,4095,4095
7.17128258700177,1477,2704,3247
7.173977049998939,4095,807,2662
7.176671805998922,4095,4095,4095
7.179370477999328,4095,4095,4095
7.1820634420000715,2805,4095,4095
7.1847535310007515,958,4095,4095
7.187448077998852,438,4095,4095
7.190142208000907,587,4095,4095
7.19283271400127,4095,4095,4095
7.1955263019990525,4095,4095,4095
7.198215890999563,4095,4095,4095
7.200906812999165,3703,4095,4095
7.203601026998513,1136,1863,3066
7.20629665800152,437,4095,4095
7.208991996001714,435,4095,4095
7.211688210001739,2490,4095,4095
7.214382756999839,4095,2619,3135
7.217074846001196,4095,4095,4095
7.219767934999254,4095,4095,4095
7.222461107001436,2417,4095,4095
7.225155446001736,654,4095,4095
7.227851618001296,432,4095,4095
7.230545540001913,871,4095,4095
7.233236962001683,4095,4095,4095
7.235931967999932,4095,4095,4095
7.238662097999622,4095,4095,4095
7.241368979000981,3431,4095,4095
7.24406827599887,1162,4095,4095
7.246763614999509,435,4095,4095
7.249455494998983,437,4095,4095
7.252149833999283,3536,4095,4095
7.254843130998779,4095,4095,4095
7.25753326099948,4095,2908,3286
7.260226016998786,4095,4095,4095
7.262918231001095,2073,4095,4095
7.265608653000527,463,4095,4095
7.26829990799888,433,4095,4095
7.2709919970002375,1405,4095,4095
7.273709127999609,4095,1553,2635
7.276401133000036,4095,4095,4095
7.279095388999849,4095,4095,4095
7.281790518998605,2763,4095,4095
7.284480982998502,894,4095,4095
7.287173404998612,439,4095,4095
7.289865744001872,449,4095,4095
7.292557415999909,4095,4095,4095
7.295249588001752,4095,4095,4095
7.2979436770001485,4095,4095,4095
7.3006348490016535,3619,4095,4095
7.30332947900024,1056,2432,2685
7.306026318001386,438,4095,4095
7.3087173650019395,435,4095,4095
7.311410745998728,1342,2687,3247
7.314105001001735,4095,1616,2885
7.3167952980002156,4095,4095,4095
7.319487304001086,4095,4095,4095
7.322200392998639,2313,4095,4095
7.324897356000292,531,4095,4095
7.327592695000931,457,4095,4095
7.330286283999158,496,4095,4095
7.332976747999055,4095,4095,4095
7.335669878000772,4095,4095,4095
7.338366341999063,4095,4095,4095
7.341064723001182,3394,4095,4095
7.343762144999346,772,2188,3127
7.346460108001338,437,4095,4095
7.34915190600077,431,4095,4095
7.351848578000499,2545,4095,4095
7.354543749999721,4095,4095,3599
7.357235546998709,4095,4095,4095
7.359927761001018,4095,4095,4095
7.362620183001127,2159,4095,4095
7.365312229998381,464,4095,4095
7.368005693999294,435,4095,4095
7.370702574000461,912,4095,4095
7.373396245999174,4095,4095,4095
7.37609141899884,4095,4095,4095
7.378785132001212,4095,4095,4095
7.381477471000835,3271,4095,4095
7.3841711429995485,1082,4095,4095
7.386867524000991,432,4095,4095
7.389552779000951,437,4095,4095
7.3922479930006375,3452,4095,4095
7.394944122999732,4095,4095,4095
7.397636046000116,4095,2704,3213
7.400362258998939,3982,4095,4095
7.40305984799852,1834,4095,4095
7.4057770619983785,448,4095,4095
7.408470401001978,433,4095,4095
7.411165697998513,1363,4095,4095
7.413859287000378,4095,867,2515
7.416551751000952,4095,4095,4095
7.419247089001146,4095,4095,4095
7.42194084500079,2495,4095,4095
7.424632184000075,662,4095,4095
7.427327272002003,433,4095,4095
7.4300224450016685,427,4095,4095
7.432716117000382,4095,4095,4095
7.435413372000767,4095,4095,4095
7.438107294001384,4095,4095,4095
7.4408331330014335,3426,4095,4095
7.443538972001988,815,1291,2526
7.446234561000892,434,4095,4095
7.448926732999098,433,4095,4095
7.451623363002,1421,4095,4095
7.4543179940010305,4095,2185,3103
7.457009958001436,4095,4095,4095
7.459704087999853,4095,4095,4095
7.4623945519997505,2086,4095,4095
7.465080849000515,462,4095,4095
7.467774146000011,433,4095,4095
7.470471192998957,535,4095,4095
7.473163740000018,4095,4095,4095
7.475859538000805,4095,4095,4095
7.478555459998461,4095,4095,4095
7.481247340001573,3456,4095,4095
7.483942178998404,1060,3712,3712
7.486637268000777,454,4095,4095
7.489327857001626,447,4095,4095
7.492021861999092,3621,4095,4095
7.49471640900083,4095,3721,3469
7.497410623000178,4095,4095,4095
7.500106628001959,4095,4095,4095
7.502801634000207,4095,4095,4095
7.505494639000972,3008,4095,4095
7.508188936000806,1395,4095,4095
7.51088431700191,2137,4095,4095
7.5135772389985505,4095,4095,4095
7.516271286000119,4095,4095,4095
7.518964875001984,4095,4095,4095
7.521655589000147,2896,4095,4095
7.524430803001451,657,4095,4095
7.527129682999657,432,4095,4095
7.529827105001459,432,4095,4095
7.532517944000574,2743,4095,4095
7.535213407998526,4095,4095,4095
7.537908704998699,3475,3997,3678
7.540600461001304,2357,4095,4095
7.543296799001837,527,4095,4095
7.545990055001312,432,4095,4095
7.5486816439988615,427,4095,4095
7.551376357001573,534,2918,3146
7.554070820999186,3984,573,2480
7.5567638680004166,4095,4095,4095
7.5594557900003565,3822,4095,4095
7.5621458790010365,1883,4095,4095
7.564837592999538,447,4095,4095
7.5675274320019525,435,4095,4095
7.5702182710010675,450,4095,4095
7.572911068000394,4095,4095,4095
7.57560619799915,4095,4095,4095
7.578300078999746,4095,4095,4095
7.580991334001737,3461,4095,4095
7.583684548000747,939,657,2656
7.586379719999968,445,4095,4095
7.589072058999591,432,4095,4095
7.591766438999912,1652,4095,4095
7.594462861001375,4095,2435,3142
7.597157408999919,4095,4095,4095
7.5998537890009175,4095,4095,4095
7.602547377999144,2450,4095,4095
7.605240174998471,681,4095,4095
7.607934138999553,434,4095,4095
7.61062989399943,691,4095,4095
7.6133229000006395,4095,4095,4095
7.616018071999861,4095,4095,4095
7.6187125770011335,4095,4095,4095
7.6214026660018135,3536,4095,4095
7.6241173800008255,1006,4095,4095
7.626815676998376,439,4095,4095
7.62950784900022,438,4095,4095
7.632201855001767,3162,4095,4095
7.634895401999529,4095,3969,3547
7.637587991001055,4095,4095,4095
7.640282953998394,4095,4095,4095
7.643008627001109,2387,4095,4095
7.6457390489995305,641,4095,4095
7.648432096000761,437,4095,4095
7.651129310001124,1328,4095,4095
7.653824690001784,4095,3619,3142
7.656518862000667,4095,4095,4095
7.659212908998597,4095,4095,4095
7.6619059149998066,3447,4095,4095
7.6645961700014595,1424,4095,4095
7.667286425999919,432,4095,4095
7.6699768059988855,457,4095,4095
7.672667937000369,4095,4095,4095
7.675362983998639,4095,4095,4095
7.6780649479987915,4095,4095,4095
7.680760078001185,4095,4095,4095
7.683457292001549,2263,4095,4095
7.686155213999882,567,4095,4095
7.688850844999251,436,4095,4095
7.691546141999424,1425,2530,3117
7.695115482001711,4095,437,2531
7.697828987998946,4095,4095,4095
7.7005223679989285,4095,4095,4095
7.7032188740013225,2426,4095,4095
7.7059155460010516,672,4095,4095
7.70860867599913,432,4095,4095
7.711304765001842,1568,4095,4095
7.7139983540000685,4095,2156,2767
7.7166895260015735,4095,4095,4095
7.7193841980006255,4095,4095,4095
7.722080995001306,3397,4095,4095
7.724775500999385,1323,4095,4095
7.727472714999749,438,4095,4095
7.730166969999118,438,4095,4095
7.732857933999185,4095,4095,4095
7.735553272999823,4095,4095,4095
7.738246027998684,4095,4095,4095
7.740937159000168,4095,4095,4095
7.743630747001589,1503,2340,2704
7.74632537800062,459,4095,4095
7.749018924998381,437,4095,4095
7.751714221998554,1524,2953,3312
7.754411186000652,4095,1047,2758
7.7571046500015655,4095,4095,4095
7.759797613001865,4095,4095,4095
7.762490286000684,2753,4095,4095
7.765181833001407,909,4095,4095
7.767873379998491,433,4095,4095
7.770566343999235,567,4095,4095
7.773261974001798,4095,4095,4095
7.775971270999435,4095,4095,4095
7.778683234999335,4095,4095,4095
7.781379157000629,3513,4095,4095
7.784074496001267,950,3669,3536
7.786767710000277,438,4095,4095
7.7894599239989475,431,4095,4095
7.7921631790013635,2590,4095,4095
7.794864185001643,4095,3174,3312
7.797562815001584,4095,4095,4095
7.800261737000255,4095,4095,4095
7.802962033998483,2175,4095,4095
7.805656455999269,465,4095,4095
7.808382504001202,432,4095,4095
7.811090134000551,959,4095,4095
7.813787848001084,4095,4095,4095
7.816484145001596,4095,4095,4095
7.81917790100124,4095,4095,4095
7.821873988999869,2970,4095,4095
7.824566495000909,969,4095,4095
7.827260792000743,435,4095,4095
7.829955172001064,437,4095,4095
7.832645761001913,3493,4095,4095
7.8353409330011345,4095,4095,4095
7.838036396999087,4095,3232,3446
7.840730235999217,3889,4095,4095
7.8434691580005165,1808,4095,4095
7.846176914001262,448,4095,4095
7.8488713769984315,436,4095,4095
7.851569090998964,1040,3667,3792
7.854264763001993,4095,538,2485
7.856957185998908,4095,4095,4095
7.859650024001894,4095,4095,4095
7.862343196000438,2681,4095,4095
7.865035034999892,849,4095,4095
7.86772854100127,435,4095,4095
7.8704214630015485,471,4095,4095
7.873112509998464,4095,4095,4095
7.875805514999229,4095,4095,4095
7.878500896000332,4095,4095,4095
7.881195484998898,3751,4095,4095
7.883892739999283,1174,563,2607
7.88658987099916,437,4095,4095
7.889281250998465,432,4095,4095
7.89197746499849,1734,4095,4095
7.89467342900025,4095,2169,3085
7.897365683998942,4095,4095,4095
7.900059356001293,4095,4095,4095
7.902752695001254,2527,4095,4095
7.905444366999291,720,4095,4095
7.908139456001663,433,4095,4095
7.910832711000694,706,4095,4095
7.913527341999725,4095,4095,4095
7.916225430999475,4095,4095,4095
7.918919185998675,4095,4095,4095
7.921610400000645,3440,4095,4095
7.924315280000883,848,4095,4095
7.927011494000908,432,4095,4095
7.929733125001803,432,4095,4095
7.932427629999438,2827,4095,4095
7.93512342699978,4095,4095,4095
7.937819266000588,4095,4095,4095
7.940511647000676,4095,4095,4095
7.943206610001653,1963,4095,4095
7.945903658001043,449,4095,4095
7.948596787999122,437,4095,4095
7.951292752000882,1059,4095,4095
7.953987549000885,4095,3806,3756
7.956679720999091,4095,4095,4095
7.9593735599992215,4095,4095,4095
7.962066732001404,2672,4095,4095
7.964759403999778,816,4095,4095
7.967453117998957,437,4095,4095
7.970145956998749,445,4095,4095
7.972840504000487,3546,4095,4095
7.975537133999751,4095,4095,4095
7.978232389999903,4095,4095,4095
7.980923394999991,3634,4095,4095
7.98361419199864,1609,4095,4095
7.986309240000992,438,4095,4095
7.989000787001714,434,4095,4095
7.9916964170006395,1055,3892,3676
7.9943920059995435,4095,355,2496
7.997084095000901,4095,4095,4095
7.999780475001899,4095,4095,4095
8.002475438999682,2679,4095,4095
8.005168277999474,982,4095,4095
8.007863700000598,446,4095,4095
8.010611705001793,624,4095,4095
8.013341753001441,4095,4095,4095
8.01603892500134,4095,4095,4095
8.01873163900018,4095,4095,4095
8.021423893998872,4095,4095,4095
8.02411923299951,2894,1223,2909
8.026815072000318,2045,4095,4095
8.029506494000088,1083,4095,4095
8.032201623998844,3395,4095,4095
8.034896130000561,4095,2297,3083
8.037587468999845,4095,4095,4095
8.040281432000484,4095,4095,4095
8.042978729001334,2622,4095,4095
8.04572731799999,470,4095,4095
8.048431407001772,431,4095,4095
8.051128413000697,529,4095,4095
8.053824626000278,4095,4095,4095
8.056516174001445,4095,4095,4095
8.059219220998784,3839,4095,4095
8.06192880999879,1762,4095,4095
8.064626481998857,128,4095,4095
8.067318944998988,425,4095,4095
8.070010618001106,427,4095,4095
8.072702330999164,2346,4095,4095
8.07539550400179,4095,4095,4095
8.078091466999467,3972,2609,3184
8.080783388999407,3115,4095,4095
8.08347997799865,1215,4095,4095
8.08617352500005,434,4095,4095
8.08886765599891,431,4095,4095
8.091565203001664,1189,4095,4095
8.09425900000133,4095,1309,2605
8.096950797000318,4095,4095,4095
8.099646968999878,4095,4095,4095
8.102339475000917,2618,4095,4095
8.106609066999226,819,4095,4095
8.109308196999336,432,4095,4095
8.112007285999425,1413,2960,3312
8.114703250001185,4095,1135,2754
8.117397089001315,4095,4095,4095
8.120091510998463,4095,4095,4095
8.12278834999961,2496,4095,4095
8.125481146998936,704,4095,4095
8.128175611000188,434,4095,4095
8.130871866000234,581,4095,4095
8.133565037998778,4095,4095,4095
8.136259876999247,4095,4095,4095
8.138956716000393,4095,4095,4095
8.141652345999319,3563,4095,4095
8.144390184999793,1000,3610,3600
8.147088316000008,438,4095,4095
8.149784779001493,435,4095,4095
8.152476993000164,2838,4095,4095
8.155170706999343,4095,3467,3408
8.157862711999769,4095,4095,4095
8.160554134999984,4095,4095,4095
8.163246598000114,2415,4095,4095
8.165937312001915,655,4095,4095
8.16863048400046,433,4095,4095
8.171324572998856,1093,4095,4095
8.174017620000086,4095,4095,4095
8.176707583999814,4095,4095,4095
8.179403506001108,4095,4095,4095
8.18209763699997,3505,4095,4095
8.184790142000566,1425,4095,4095
8.187483189001796,435,4095,4095
8.190178320000996,443,4095,4095
8.192870449998736,3852,4095,4095
8.195564956000453,4095,4095,4095
8.198261085999548,4095,3147,3390
8.200954424999509,4095,4095,4095
8.203652180000063,2373,4095,4095
8.20634768599848,649,4095,4095
8.209039441000641,442,4095,4095
8.211733654999989,1694,4095,4095
8.214429285999358,4095,1359,2615
8.217123040998558,4095,4095,4095
8.219816630000423,4095,4095,4095
8.222508801998629,3435,4095,4095
8.225199806998717,1378,4095,4095
8.227893729999778,437,4095,4095
8.230587067999295,482,4095,4095
8.233282032000716,4095,4095,4095
8.23597895399871,4095,4095,4095
8.238672626001062,4095,4095,4095
8.241362673001277,4095,4095,4095
8.244057595999038,1535,1762,2615
8.246789267999702,465,4095,4095
8.24949260699941,432,4095,4095
8.252187944999605,1757,3581,3841
8.254881909000687,4095,1777,2933
8.257575455998449,4095,4095,4095
8.260270336999383,4095,4095,4095
8.262963216999196,2864,4095,4095
8.265652598001907,999,4095,4095
8.268374769999355,439,4095,4095
8.271065816999908,746,4095,4095
8.27376211400042,4095,4095,4095
8.276452952999534,4095,4095,4095
8.279147707999073,4095,4095,4095
8.28183867199914,3603,4095,4095
8.284529593998741,1040,3042,3354
8.287223516999802,438,4095,4095
8.289918146998389,441,4095,4095
8.292612236000423,2877,4095,4095
8.295305990999623,4095,3629,3472
8.298002038001869,4095,4095,4095
8.300694501998805,4095,4095,4095
8.30338938299974,2193,4095,4095
8.306084846000886,478,4095,4095
8.308769560000655,432,4095,4095
8.311462982001103,1019,4095,4095
8.314155987998674,4095,4095,4095
8.316846534999058,4095,4095,4095
8.319541331999062,4095,4095,4095
8.322234587998537,2880,4095,4095
8.324925426000846,947,4095,4095
8.32761972300068,437,4095,4095
8.33031414600191,433,4095,4095
8.333007984001597,3436,4095,4095
8.335700947998703,4095,4095,4095
8.338392911999108,4095,3464,3486
8.341083458999492,3727,4095,4095
8.343775797999115,1694,4095,4095
8.346467719999055,439,4095,4095
8.3491564750002,435,4095,4095
8.351852189000056,1369,4095,4095
8.35454577800192,4095,883,2529
8.357235032999597,4095,4095,4095
8.359927788998903,4095,4095,4095
8.362620961001085,2525,4095,4095
8.36531421700056,709,4095,4095
8.36800697199942,432,4095,4095
8.3706962690012,449,4095,4095
8.373387399999046,4095,4095,4095
8.376077613000234,4095,4095,4095
8.378770077000809,4095,4095,4095
8.38146149900058,3521,4095,4095
8.384154254999885,988,1680,2589
8.38684726000065,441,4095,4095
8.389535849000822,434,4095,4095
8.392228646000149,1392,2559,3235
8.394922652001696,4095,1998,3039
8.397614115001488,4095,4095,4095
8.400318371001049,4095,4095,4095
8.40301191799881,2313,4095,4095
8.405730007001694,554,4095,4095
8.408422721000534,432,4095,4095
8.411116518000199,571,4095,4095
8.413810815000033,4095,4095,4095
8.416501611998683,4095,4095,4095
8.419192951001605,4095,4095,4095
8.421907539999665,3357,4095,4095
8.42461200300022,742,3413,3550
8.427311966999696,435,4095,4095
8.430009055999108,433,4095,4095
8.432701270001417,2642,4095,4095
8.435395858999982,4095,3625,3431
8.438092988999415,4095,4095,4095
8.440784078000434,4095,4095,4095
8.44347929200012,2062,4095,4095
8.446171464001964,454,4095,4095
8.4488983859992,436,4095,4095
8.451608183000644,980,4095,4095
8.454302729998744,4095,4095,4095
8.456997193999996,4095,4095,4095
8.459694908000529,4095,4095,4095
8.46239057999992,2992,4095,4095
8.465079169000091,1022,4095,4095
8.467773340998974,433,4095,4095
8.470467513001495,439,4095,4095
8.473161227000674,3605,4095,4095
8.475853481999366,4095,4095,4095
8.47854965499937,4095,3543,3574
8.481239742999605,3958,4095,4095
8.483934249001322,1869,4095,4095
8.486629629001982,445,4095,4095
8.489321717999701,443,4095,4095
8.492017806998774,1339,3997,3840
8.494713061998482,4095,511,2499
8.497404818001087,4095,4095,4095
8.50009778200183,4095,4095,4095
8.50279170399881,2551,4095,4095
8.505485500998475,706,4095,4095
8.508178715001122,432,4095,4095
8.510868469998968,454,4095,4095
8.513560142000642,4095,4095,4095
8.516254981001111,4095,4095,4095
8.518948861001263,4095,4095,4095
8.52164303400059,3413,4095,4095
8.524422039001365,803,689,2656
8.527119419999508,434,4095,4095
8.529815925001458,434,4095,4095
8.53250643100182,1535,4095,4095
8.535201435999625,4095,2321,3095
8.537894942001003,4095,4095,4095
8.540580529999716,4095,4095,4095
8.543272661001538,2003,4095,4095
8.54596654100169,449,4095,4095
8.548656463000952,433,4095,4095
8.551349386001675,621,4095,4095
8.554044016000262,4095,4095,4095
8.55673502100035,4095,4095,4095
8.55942773499919,4095,4095,4095
8.562122616000124,2913,4095,4095
8.564814288001799,477,4095,4095
8.567505168000935,439,4095,4095
8.570197007000388,437,4095,4095
8.572888054000941,2685,4095,4095
8.575577350999083,4095,3825,3489
8.578266939999594,4095,4095,3958
8.580955362001987,4095,4095,4095
8.58364445099869,2224,4095,4095
8.586340123001719,651,4095,4095
8.589031169998634,438,4095,4095
8.591724801000964,1488,4095,4095
8.594419640001433,4095,4095,4095
8.597109562000696,4095,4095,4095
8.599803649998648,4095,4095,4095
8.602495989001909,4095,4095,4095
8.605186160999438,3371,4095,4095
8.607880250001472,1726,4095,4095
8.610572796998895,1131,4095,4095
8.613264094001352,4095,4095,4095
8.615958350001165,4095,4095,4095
8.618654189001973,4095,4057,3667
8.621346527001151,4095,4095,4095
8.624042325001938,1648,4095,4095
8.626737497001159,435,4095,4095
8.629428251999343,430,4095,4095
8.632119924001017,672,4095,3861
8.634812512998906,3613,507,2499
8.637502059998951,4095,4095,4095
8.640194816001895,3378,4095,4095
8.642889820999699,1332,4095,4095
8.645580659998814,437,4095,4095
8.648273290000361,425,4095,4095
8.650996254000347,436,4095,4095
8.653727675999107,3374,4095,4095
8.65642226500131,4095,4095,4095
8.659116311999242,4095,4095,4095
8.661808609998843,2707,4095,4095
8.66449828199984,466,999,2816
8.667190661999484,439,4095,4095
8.669883126000059,431,4095,4095
8.672574090000126,1535,4095,4095
8.675476970998716,4095,2318,3130
8.678173808999418,4095,4095,4095
8.680867606999527,4095,4095,4095
8.683560069999658,2122,4095,4095
8.68625482599964,464,4095,4095
8.688946790000045,433,4095,4095
8.691659086998698,902,4095,4095
8.694367800999316,4095,4095,4095
8.697061638999003,4095,4095,4095
8.69975677000184,4095,4095,4095
8.702452191999328,3287,4095,4095
8.705143989001954,1152,4095,4095
8.707839161001175,434,4095,4095
8.710534207999444,444,4095,4095
8.713228921998962,3514,4095,4095
8.715923177998775,4095,4095,4095
8.718617433001782,4095,2904,3290
8.721308855001553,4095,4095,4095
8.724004318999505,2104,4095,4095
8.726699573999213,464,4095,4095
8.72938983000131,436,4095,4095
8.732082627000636,1497,4095,4095
8.734776757999498,4095,1040,2589
8.73746884600041,4095,4095,4095
8.740162685000541,4095,4095,4095
8.742856356999255,3279,4095,4095
8.745550278999872,1235,4095,4095
8.748248326999601,437,4095,4095
8.750944374001847,448,4095,4095
8.753636546000052,4095,4095,4095
8.756359593000525,4095,4095,4095
8.759055390000867,4095,4095,4095
8.761774270999013,4095,4095,4095
8.76447227600147,1606,1934,2631
8.767170531999,487,4095,4095
8.769863162000547,440,4095,4095
8.772552667000127,1838,3253,3537
8.775287005999417,4095,2255,3050
8.77797997000016,4095,4095,4095
8.780671059001179,4095,4095,4095
8.783367605999956,3294,4095,4095
8.786061777998839,1262,4095,4095
8.788752117001422,443,4095,4095
8.791445246999501,884,4095,4095
8.79413875300088,4095,4095,4095
8.796829758000968,4095,4095,4095
8.799522971999977,4095,4095,4095
8.802217060998373,4095,4095,4095
8.804907690999244,1521,2747,3321
8.807604446999903,478,4095,4095
8.810306911000225,442,4095,4095
8.813001416001498,3392,4095,4095
8.815695755001798,4095,4095,4095
8.81839042700085,4095,4095,4095
8.82108072399933,4095,4095,4095
8.823774604999926,2843,4095,4095
8.826470944000903,1001,4095,4095
8.829162198999256,440,4095,4095
8.831856078999408,1303,4095,4095
8.834550668001611,4095,4095,4095
8.837241673998506,4095,4095,4095
8.839935346000857,4095,4095,4095
8.842632518000755,3632,4095,4095
8.845326064998517,1590,4095,4095
8.84801952899943,439,4095,4095
8.85071449300085,448,4095,4095
8.853439540002,3903,4095,4095
8.8561442120008,4095,4095,4095
8.858839051001269,4095,4095,3613
8.861533806000807,4095,4095,4095
8.864229520000663,2211,4095,4095
8.866921233999165,496,4095,4095
8.869613613998808,438,4095,4095
8.87231587000133,1183,3248,3115
8.875011167001503,4095,719,2478
8.877734296998824,4095,4095,4095
8.880427345000498,4095,4095,4095
8.883122308001475,2783,4095,4095
8.885815813999216,911,4095,4095
8.888508861000446,437,4095,4095
8.891203283001232,466,4095,4095
8.893898663998698,4095,4095,4095
8.896590377000393,4095,4095,4095
8.89928504999989,4095,4095,4095
8.90197993000038,3519,4095,4095
8.904673018998437,963,846,2736
8.907369898999605,439,4095,4095
8.910063571001956,434,4095,4095
8.912754618999315,1613,4095,4095
8.915448291001667,4095,1874,2946
8.918144170998858,4095,4095,4095
8.920835343000363,4095,4095,4095
8.923529390001931,2197,4095,4095
8.926222936999693,472,4095,4095
8.92891519299883,434,4095,4095
8.93160853199879,637,4095,4095
8.93430582899964,4095,4095,4095
8.936999334000575,4095,4095,4095
8.939695965000283,4095,4095,4095
8.942390553998848,3170,4095,4095
8.94508251699881,622,4095,4095
8.947779023001203,435,4095,4095
8.95047365299979,435,4095,4095
8.953164200000174,2779,4095,4095
8.955856206001044,4095,4095,3654
8.958553503001895,4095,4095,3789
8.96124454999881,4095,4095,4095
8.963939971999935,1974,4095,4095
8.966632810999727,453,4095,4095
8.969325691999984,434,4095,4095
8.972017905001849,1076,4095,4095
8.974708576999546,4095,4095,3906
8.977399208000861,4095,4095,4095
8.980091130000801,4095,4095,4095
8.982785427000636,2865,4095,4095
8.985476598998503,912,4095,4095
8.988171437998972,437,4095,4095
8.99086381899906,447,4095,4095
8.993554281998513,3538,4095,4095
8.996249662999617,4095,4095,4095
8.998945002000255,4095,4095,4095
9.001637882000068,3794,4095,4095
9.004362929001218,1734,4095,4095
9.007060476000333,446,4095,4095
9.009776981998584,433,4095,4095
9.012524654001027,1059,2835,3088
9.015258576000633,4095,400,2544
9.017955749000976,4095,4095,4095
9.020647920999181,4095,4095,4095
9.023342300999502,2368,4095,4095
9.026035639999463,571,4095,4095
9.028728978999425,432,4095,4095
9.031424150998646,480,4095,4095
9.03412119800123,4095,4095,4095
9.036815827999817,4095,4095,4095
9.039511083999969,4095,4095,4095
9.042204755998682,3285,4095,4095
9.044894927999849,667,1856,3056
9.047590558999218,441,4095,4095
9.05028527200193,433,4095,4095
9.052979361000325,2199,4095,4095
9.05570395000177,4095,3135,3296
9.058408664001036,4095,4095,4095
9.061102503001166,3963,4095,4095
9.063799799998378,1871,4095,4095
9.066515430000436,450,4095,4095
9.069230102999427,437,4095,4095
9.071926566000911,768,4095,4095
9.074619947001338,4095,4095,4095
9.077312535999226,4095,4095,4095
9.080007166001451,4095,4095,4095
9.082699712998874,2542,4095,4095
9.085391344000527,635,4095,4095
9.088086599000235,434,4095,4095
9.090780687998631,432,4095,4095
9.093472360000305,2928,4095,4095
9.096165199000097,4095,4095,3866
9.098863579001772,4095,2997,3342
9.10155958500036,3430,4095,4095
9.10425233999922,1367,4095,4095
9.106948970998928,435,4095,4095
9.109640517999651,432,4095,4095
9.112365107001096,1127,4095,4095
9.115059987001587,4095,1081,2586
9.1177819930017,4095,4095,4095
9.120475497998996,4095,4095,4095
9.123170711998682,2018,4095,4095
9.125864384001034,450,4095,4095
9.128558055999747,432,4095,4095
9.131254727999476,437,4095,4095
9.133950441999332,3575,4095,4095
9.13664315600181,4095,4095,4095
9.139338870001666,4095,4095,4095
9.142034500000591,2849,4095,4095
9.144725338999706,453,845,2541
9.147418052998546,431,4095,4095
9.150112557999819,432,4095,4095
9.152804438999738,1167,3135,3400
9.155498402000376,4095,1264,2800
9.158191783000802,4095,4095,4095
9.160886580000806,3767,4095,4095
9.163584126999922,1723,4095,4095
9.166280466000899,438,4095,4095
9.168972262999887,432,4095,4095
9.17166331000044,459,4095,4095
9.174354523998772,4095,4095,4095
9.177047155000764,4095,4095,4095
9.179742118001741,4095,4095,4095
9.182433957001194,2448,4095,4095
9.185124379000627,112,3221,3457
9.187819593000313,431,4095,4095
9.190514515001269,429,4095,4095
9.193204354000045,2170,4095,4095
9.1959000679999,4095,3284,3383
9.198597739999968,4095,4095,4095
9.201289536998956,3311,4095,4095
9.203984709001816,1207,4095,4095
9.206679547998647,432,4095,4095
9.209371637000004,431,4095,4095
9.212066101001255,598,4095,4095
9.214760230999673,4095,4095,4095
9.217453902998386,4095,4095,4095
9.220148534001055,3894,4095,4095
9.222843706000276,1808,4095,4095
9.225538960999984,355,4095,4095
9.228235632999713,432,4095,4095
9.23092984699906,430,4095,4095
9.233621978000883,2523,4095,4095
9.236341191000975,4095,4095,4095
9.239038029998483,3597,3654,3536
9.24175899400143,2483,4095,4095
9.244452457998705,622,4095,4095
9.247143255000992,427,4095,4095
9.249837301998923,432,4095,4095
9.252529016001063,581,4025,3870
9.255223855001532,3629,528,2485
9.257955444001709,4095,4095,4095
9.260657741000614,3403,4095,4095
9.263355038001464,1270,4095,4095
9.266050042999268,431,4095,4095
9.26874338199923,424,4095,4095
9.271434471000248,435,4095,4095
9.274127018001309,3212,4095,4095
9.276817982001376,4095,4095,4095
9.279510821001168,4095,4095,4095
9.282201492998865,2117,4095,4095
9.284892122999736,0,637,2639
9.28758700400067,432,4095,4095
9.290285218001372,429,4095,4095
9.292979722999007,1278,4095,4095
9.29567472800045,4095,1728,2925
9.298370733999036,4095,4095,4095
9.301061738999124,4095,4095,4095
9.303754036998725,2397,4095,4095
9.306448916999216,823,4095,4095
9.309141506000742,442,4095,4095
9.31183884499842,979,4095,4095
9.314533266999206,4095,4095,4095
9.317225522001536,4095,4095,4095
9.319919068999297,4095,4095,4095
9.322616366000148,2830,4095,4095
9.325308789000701,0,4095,4095
9.32800433599914,429,4095,4095
9.330694257998402,425,4095,4095
9.33338576299866,1520,4095,4095
9.33608043500135,3035,3830,3468
9.338772899001924,3344,4095,4093
9.341462487998797,1451,4095,4095
9.344156243001635,419,4095,4095
9.346851081998466,429,4095,4095
9.349541753999802,426,4095,4095
9.352235177000694,439,4095,4095
9.35493222399964,2322,4045,3920
9.357624978998501,3628,4095,4095
9.360343526001088,2329,4095,4095
9.363038906998554,738,4095,4095
9.365756203998899,434,4095,4095
9.368449208999664,423,4095,4095
9.371144797998568,428,4095,4095
9.37383692900039,2426,4095,4095
9.37652939200052,4031,4095,4095
9.379221605999192,3121,4095,3840
9.381912737000675,2053,4095,4095
9.384605700000975,446,4095,4095
9.387303748000704,431,4095,4095
9.389997211001173,429,4095,4095
9.39268704999995,467,3056,3103
9.395380346999445,3709,1023,2559
9.398075269000401,4095,4095,4095
9.400767733000976,3211,4095,4095
9.403463696999097,1097,4095,4095
9.406155743999989,435,4095,4095
9.408849250001367,432,4095,4095
9.411541462999594,426,4095,4095
9.41423371899873,3401,4095,4095
9.416926265999791,4095,4095,4095
9.419621813001868,4095,4095,4095
9.422316527001385,1953,4095,4095
9.425007115998596,0,945,2789
9.427699413001392,432,4095,4095
9.430393001999619,432,4095,4095
9.433083590000024,1003,4095,4095
9.43577563800136,4095,1563,2921
9.438473600999714,4095,4095,4095
9.441164690000733,2955,4095,4095
9.443859446000715,965,4095,4095
9.446555284001079,437,4095,4095
9.449247331998777,432,4095,4095
9.451945128999796,455,4095,4095
9.454640093001217,4095,4095,4095
9.457355015001667,4095,4095,4095
9.460088603998884,4003,4095,4095
9.462797484000475,1822,4095,4095
9.465490323000267,192,4095,4095
9.468185745001392,430,4095,4095
9.470876333998604,432,4095,4095
9.473567673001526,2355,4095,4095
9.476259970000683,4095,4095,3887
9.478952309000306,4095,3627,3583
9.481642939001176,2736,4095,4095
9.484367778000887,779,4095,4095
9.487065075001738,432,4095,4095
9.48978224700113,432,4095,4095
9.492474793998554,832,4095,4095
9.495168966001074,4095,2417,2805
9.497863264001353,4095,4095,4095
9.500554644000658,3760,4095,4095
9.50324748300045,1623,4095,4095
9.505942612999206,439,4095,4095
9.508632576998934,429,4095,4095
9.511327749001794,432,4095,4095
9.514025920998392,3403,4095,4095
9.516718718001357,4095,4095,4095
9.51941480700043,4095,4095,4095
9.522110063000582,2437,4095,4095
9.524800900999253,264,4023,3583
9.527493949000927,433,4095,4095
9.530187371001375,430,4095,4095
9.532881543000258,787,2605,3197
9.535575631998654,4095,464,2559
9.538267470001301,4095,4095,4095
9.540960475998872,3383,4095,4095
9.543655481000314,1150,4095,4095
9.546354529000382,415,4095,4095
9.549046200998418,425,4095,4095
9.551740956001595,444,4095,4095
9.554436128000816,3689,4095,4095
9.557127883999783,4095,4095,4095
9.559823306000908,3966,4095,4095
9.562520269999368,1720,4095,4095
9.565210816999752,0,1459,2913
9.56873569900199,422,4095,4095
9.571458079000877,422,4095,4095
9.574157001999993,2953,4095,4095
9.576853131999087,4095,4095,4095
9.579547512999852,3649,4095,4095
9.582239560000744,1701,4095,4095
9.584930648001318,0,2183,2647
9.587626945998636,429,4095,4095
9.59032420099902,432,4095,4095
9.593016247999913,597,2450,3185
9.595712212001672,3642,2647,3214
9.59840530099973,4095,4095,4095
9.601096597998549,2319,4095,4095
9.603790812001535,459,4095,4095
9.606484858999465,432,4095,4095
9.609178531001817,430,4095,4095
9.611872952998965,417,4095,4095
9.614567208998778,3381,4095,4095
9.61725917199874,4095,4095,4095
9.619954344001599,3271,4095,4095
9.62265143300101,1084,4095,4095
9.625345896998624,0,2987,3456
9.628043985998374,427,4095,4095
9.630742282999563,432,4095,4095
9.633435204999842,1581,4095,4095
9.636130086000776,3662,3248,3367
9.638824549001583,4016,4095,4095
9.641519929999049,1886,4095,4095
9.644214477000787,439,4095,4095
9.6469073570006,432,4095,4095
9.649599612999737,431,4095,4095
9.65229311800067,453,4095,4095
9.654988206999406,3826,4095,4095
9.657707171001675,4095,4095,4095
9.660430427000392,2859,4095,4095
9.663141306999023,810,4095,4095
9.665834438001184,429,4095,4095
9.668528484999115,430,4095,4095
9.671223157001805,435,4095,4095
9.673914620998403,2406,4095,4095
9.67660645900105,4095,4095,3934
9.679298298000504,3069,3708,3561
9.68199109499983,1767,4095,4095
9.684685976000765,437,4095,4095
9.687380731000303,431,4095,4095
9.690073861998826,429,4095,4095
9.692764534000162,503,4095,3932
9.695455164001032,3713,1088,2559
9.69815016999928,4095,4095,4095
9.700841549998586,2704,4095,4095
9.703538222001953,624,4095,4095
9.70623131100001,432,4095,4095
9.708920900000521,423,4095,4095
9.711615988999256,432,4095,4095
9.714310036000825,3296,4095,4095
9.717000583001209,4095,4095,4095
9.719695380001212,3802,4095,4095
9.722389968999778,1523,4095,4095
9.725080348998745,0,1038,2549
9.727774980001413,427,4095,4095
9.730470318998414,429,4095,4095
9.73316161600087,817,3507,3903
9.735856204999436,4095,1777,3041
9.738553627001238,4095,4095,4095
9.741246798999782,2417,4095,4095
9.743942012999469,450,4095,4095
9.746637476000615,431,4095,4095
9.749331606999476,432,4095,4095
9.752028904000326,439,4095,4095
9.754724908998469,3842,4095,4095
9.757416165000905,4095,4095,4095
9.760111211999174,3440,4095,4095
9.762806634000299,1150,4095,4095
9.765496681000513,0,4095,4095
9.768191227998614,427,4095,4095
9.770885234000161,430,4095,4095
9.77357765600027,1939,4095,4095
9.776269745001628,4095,3909,3539
9.778965249999601,4095,4095,4095
9.78166304700062,2046,4095,4095
9.784422677999828,443,4095,4095
9.787135099999432,431,4095,4095
9.789828106000641,432,4095,4095
9.79252106900094,533,4095,4095
9.79524203300025,3872,4095,3907
9.79794895500163,4095,4095,4095
9.800642835998588,2926,4095,4095
9.803335840999353,739,4095,4095
9.806032847001916,432,4095,4095
9.808725476999825,425,4095,4095
9.811434107999958,432,4095,4095
9.81413444699865,2960,4095,4095
9.81683441000132,4095,4095,4095
9.819530541000859,3165,4095,4095
9.82222867100063,1744,4095,4095
9.824922427000274,403,4095,4006
9.827614265999728,430,4095,4095
9.830310646000726,429,4095,4095
9.833005485001195,658,2630,3136
9.835700531999464,4095,444,2559
9.838395703998685,4095,4095,4095
9.84109000099852,2786,4095,4095
9.843784507000237,666,4095,4095
9.846478387000388,430,4095,4095
