time,y1,y2,y3
0.006129817999976694,4095,4095,4095
0.009234517999971104,4095,4095,3569
0.011966594999989866,4095,4095,4095
0.014664213000003201,4095,4095,3407
0.01736666400000786,4095,3651,3325
0.020063323999977456,4095,3591,3568
0.022757066999986364,4095,782,2544
0.025450434999982008,4095,4095,4095
0.028140677999999753,4095,2384,3136
0.030833421000011185,4095,4095,4095
0.03352437299997746,4095,1490,2860
0.036220615999980055,4095,4095,4095
0.03891656700000112,4095,3822,2947
0.041609810000011294,4095,4095,4095
0.04430401199999778,4095,4095,3772
0.04699642100001711,4095,2267,3170
0.049689539999974386,4095,3774,3155
0.052380366000022605,4095,3850,3259
0.05507185900000877,4095,4095,2859
0.05776222700001199,4095,3539,3322
0.060454219999996894,4095,4095,4095
0.06314587999997912,4095,861,2686
0.06583924799997476,4095,4095,4095
0.06853128299997024,4095,3430,3362
0.07122231799996825,4095,4095,4095
0.07391722699998127,4095,2581,3158
0.07660905400001639,4095,4095,3681
0.0793034220000095,4095,4095,4095
0.08199512300001288,4095,4095,4095
0.08468528299999889,4095,4095,4095
0.08739206799998556,4095,1887,2943
0.090094769000018,4095,3937,3657
0.09278634599996849,4095,1240,2666
0.09548254700001735,4095,4095,4095
0.09817454000000225,4095,4067,3386
0.10086524199999758,4095,4095,4095
0.10355836000002228,4095,2399,3167
0.10625081099999534,4095,4095,4095
0.10894351299998561,4095,4095,2960
0.11164521400002059,4095,4095,4095
0.11434008200001244,4095,3687,3398
0.11708315800001401,4095,4095,3502
0.1197831100000144,4095,3793,3795
0.12247668599997041,4095,2547,3108
0.12516751300000806,4095,4095,4095
0.1278611719999958,4095,1399,2832
0.13055491599999414,4095,4095,4095
0.13324678399999357,4095,688,2655
0.13593665199999805,4095,4095,4095
0.13862706200001185,4095,3649,3254
0.14132117999997718,4095,4095,4095
0.14401233899997123,4095,3776,3464
0.14670470800001567,4095,1813,3011
0.14939828399997168,4095,4095,4095
0.1520871519999787,4095,4095,4095
0.15477810300001238,4095,4095,3645
0.15746822199997723,4095,3723,3338
0.1601577559999896,4095,4095,4095
0.16285020800000893,4095,433,2489
0.1655419090000123,4095,4095,4095
0.1682318609999811,4095,2624,3164
0.17092206199998827,4095,4095,4095
0.17361409699998376,4095,1837,2983
0.1763052150000135,4095,4095,3952
0.1789953749999995,4095,4000,2770
0.18168990999998869,4095,4095,4095
0.18438023599998132,4095,4095,3845
0.1870708960000229,4095,2342,3167
0.18976101399999834,4095,2640,3140
0.19244900699999334,4095,3129,3211
0.19514079200001788,4095,4095,4095
0.1978309929999682,4095,3614,3306
0.20051911100000552,4095,4095,4095
0.20320802099996627,4095,1317,2833
0.20589934700001322,4095,4095,4095
0.20859017399999402,4095,4001,3475
0.21128112499997087,4095,4095,4095
0.21398528499997838,4095,2799,3210
0.2166744869999775,4095,4095,3636
0.2193804379999733,4095,4095,4095
0.22208034800001997,4095,4095,4095
0.2247754239999722,4095,4095,4095
0.22746700099997952,4095,1699,2895
0.23016120199997658,4095,4095,4095
0.23285048700000743,4095,833,2553
0.23554327099998318,4095,4095,4095
0.23824264000000994,4095,4095,3381
0.24094079899998633,4095,4095,4095
0.24366662599999245,4095,2544,3191
0.24638428499997644,4095,3627,3197
0.24911290299996836,4095,4095,2812
0.2518047300000035,4095,4095,4095
0.25449493100001064,4095,4095,3504
0.2571996739999918,4095,4095,3499
0.25988958400000683,4095,2418,3207
0.26258057699999426,4095,1929,2811
0.2652724870000043,4095,4095,4095
0.2679626469999903,4095,1923,2997
0.2706543059999831,4095,4095,4095
0.273345049999989,4095,1013,2708
0.276034793000008,4095,4095,4095
0.27872670199997174,4095,3958,3311
0.2814166119999868,4095,4095,4095
0.28410868899999286,4095,4095,3570
0.28679918199998156,4095,2091,3162
0.2894920079999679,4095,4095,4095
0.2921813759999736,4095,4095,4095
0.2948725779999677,4095,4095,3747
0.2975646959999949,4095,3913,3371
0.30025806399999055,4095,4095,4095
0.30295034900001383,4095,283,2506
0.305641842,4095,4095,4095
0.30833204300000716,4095,2903,3253
0.3110233699999867,4095,4095,4095
0.31371611299999813,4095,2151,3066
0.31640710599998556,4095,4095,4095
0.3191175160000057,4095,4095,3050
0.3218193000000156,4095,4095,4095
0.3245144179999784,4095,4095,4095
0.32720628699996723,4095,2295,3139
0.32989678000001277,4095,2483,3201
0.33258835599997383,4095,2311,2991
0.33528047400000105,4095,4095,4095
0.3379818419999765,4095,4083,3431
0.3406804599999873,4095,4095,4095
0.3433758279999779,4095,1762,2960
0.3460694880000119,4095,4095,4095
0.3487621479999916,4095,4095,3625
0.35145401599999104,4095,4095,4095
0.35415005099997643,4095,3271,3314
0.3568438359999959,4095,4095,3614
0.35954811999999947,4095,4095,4095
0.36224169700000175,4095,4095,4095
0.3649316479999811,4095,4095,4095
0.3676233499999739,4095,1693,2875
0.3703151760000196,4095,4095,4095
0.37300550200001226,4095,343,2495
0.3757335789999843,4095,4095,4095
0.37842594699998244,4095,4095,3421
0.3811222319999956,4095,4095,4095
0.38381384999996726,4095,3152,3312
0.3865092180000147,4095,2442,3152
0.3892051280000146,4095,4095,2718
0.3918944119999992,4095,4095,4095
0.39458690499998283,4095,4095,3583
0.39727927399997043,4095,4095,3494
0.39996922500000665,4095,2782,3311
0.4026635509999892,4095,1497,2703
0.4053554609999992,4095,4095,4095
0.40804949599998963,4095,2105,3103
0.4107710309999675,4095,4095,4095
0.41347239899999977,4095,1295,2815
0.41619222499997477,4095,4095,4095
0.4189103429999932,4095,4095,3423
0.42161550299999817,4095,4095,4095
0.42431182899997566,4095,4095,3762
0.42700498900001094,4095,2250,3175
0.429695315999993,4095,3687,3146
0.43238585000000285,4095,4095,3318
0.4350796769999761,4095,4095,4095
0.43777625299998135,4095,3851,3372
0.44046970499999816,4095,4095,4095
0.44316323900000043,4095,848,2718
0.44585760699999355,4095,4095,4095
0.4485494339999718,4095,3882,3401
0.4512407189999976,4095,4095,4095
0.4539325029999759,4095,2740,3195
0.45662174599999616,4095,4095,3709
0.459312739999973,4095,4095,4095
0.46200323300001855,4095,4095,4095
0.46469376699997156,4095,4095,4095
0.46738488599999073,4095,1935,2969
0.47007458699999916,4095,4095,3722
0.4727715380000177,4095,1415,2688
0.47546307300001445,4095,4095,4095
0.4781563159999678,4095,4095,3425
0.48084701800001994,4095,4095,4095
0.4835381780000034,4095,2275,3155
0.48623004600000286,4095,4095,4095
0.48892703899997514,4095,4095,3103
0.491633156999967,4095,4095,4095
0.4943318169999884,4095,3744,3424
0.497063809999986,4095,4095,3627
0.4997562610000159,4095,4095,3999
0.5024508369999694,4095,2902,3199
0.5051439139999729,4095,4095,4095
0.5078360320000002,4095,1471,2857
0.5105303170000184,4095,4095,4095
0.5132222679999927,4095,485,2622
0.5159120530000223,4095,4095,4095
0.518615963000002,4095,4095,3390
0.5213184969999816,4095,4095,4095
0.5240118649999772,4095,4020,3523
0.5267041920000111,4095,2074,3007
0.5293947270000103,4095,4095,4095
0.532085928000015,4095,4095,4095
0.5347771709999734,4095,4095,3767
0.5374732060000156,4095,3979,3430
0.540168116000018,4095,4095,4095
0.5428630249999742,4095,471,2514
0.5455537269999695,4095,4095,4095
0.5482491779999918,4095,2736,3207
0.5509399210000083,4095,4095,4095
0.5536310399999707,4095,1903,3005
0.5563222829999859,4095,4095,4095
0.5590133169999945,4095,4095,3105
0.5617061020000165,4095,4095,4095
0.5643970950000039,4095,4095,3887
0.5670889219999822,4095,2319,3190
0.5697807899999816,4095,2800,3156
0.5724730329999943,4095,3369,3238
0.575165276000007,4095,4095,4095
0.5778561860000195,4095,3824,3394
0.5805478039999912,4095,4095,4095
0.5832409639999696,4095,1270,2827
0.5859316649999755,4095,4095,4095
0.5886251580000135,4095,3979,3511
0.5913218599999936,4095,4095,4095
0.594016852999971,4095,2927,3263
0.5967074289999914,4095,4095,3713
0.5994010889999686,4095,4095,4095
0.6020942899999682,4095,4095,4095
0.60478574199999,4095,4095,4095
0.6074785679999763,4095,1775,2909
0.6101696029999744,4095,4095,4095
0.612895428999991,4095,881,2593
0.6155885470000158,4095,4095,4095
0.6182814150000127,4095,4095,3487
0.620985367000003,4095,4095,4095
0.6237224849999734,4095,2764,3241
0.6264163529999678,4095,3046,3213
0.6291085130000056,4095,4095,2789
0.6317985480000061,4095,4095,4095
0.634496831999968,4095,4095,3538
0.6371945749999668,4095,4095,3578
0.6398887770000101,4095,2470,3225
0.6425818529999674,4095,1963,2867
0.6452738460000091,4095,4095,4095
0.6479654230000165,4095,1695,2935
0.6506558739999946,4095,4095,4095
0.6533472419999953,4095,1005,2747
0.6560389850000092,4095,4095,4095
0.658730520000006,4095,4095,3383
0.6614220550000027,4095,4095,4095
0.6641120479999927,4095,4095,3673
0.6668032079999762,4095,2133,3056
0.6694963680000114,4095,4095,4095
0.6721887769999739,4095,4095,4095
0.6748815199999854,4095,4095,3792
0.6775725549999834,4095,4095,3421
0.680263631999992,4095,4095,4095
0.6829554579999808,4095,271,2528
0.6856466589999854,4095,4095,4095
0.6883406530000116,4095,3066,3291
0.6910365210000009,4095,4095,4095
0.6937285139999858,4095,2142,3114
0.696417839999981,4095,4095,3823
0.6991084169999908,4095,4095,2833
0.7018019099999719,4095,4095,4095
0.7044936529999859,4095,4095,4095
0.7071860209999841,4095,2177,3093
0.7098765559999833,4095,2558,3202
0.7125660070000208,4095,2677,3184
0.7152576249999925,4095,4095,4095
0.717946951999977,4095,3971,3409
0.7206506109999964,4095,4095,4095
0.7233526050000023,4095,1681,2950
0.7260458060000019,4095,4095,4095
0.7287360070000091,4095,4095,3603
0.7314326669999787,4095,4095,4095
0.7341252850000046,4095,3132,3287
0.7368312369999899,4095,4095,3600
0.7395241049999868,4095,4095,4095
0.7422188059999826,4095,4095,4095
0.7449085490000016,4095,4095,4095
0.7475997920000168,4095,1754,2911
0.7502909520000003,4095,4095,4095
0.752996445000008,4095,405,2510
0.7557708549999802,4095,4095,4095
0.7584664729999986,4095,4095,3426
0.761159632999977,4095,4095,4095
0.7638507919999711,4095,3258,3377
0.766542534999985,4095,2020,3056
0.7692334870000082,4095,4095,2624
0.7719231469999954,4095,4095,4095
0.7746145149999961,4095,4095,3641
0.7773059659999717,4095,4095,3473
0.7799944180000011,4095,2919,3371
0.7826951189999818,4095,1360,2688
0.7853866539999785,4095,4095,4095
0.7880766050000148,4095,2022,3065
0.7907678070000088,4095,4095,4095
0.7934568410000225,4095,1349,2823
0.7961475430000178,4095,4095,4095
0.7988382030000025,4095,4095,3378
0.8015310289999888,4095,4095,4095
0.8042200219999813,4095,4095,3715
0.8069106400000123,4095,2070,3152
0.8096011750000116,4095,4095,4095
0.8122900430000186,4095,4095,4095
0.8150084530000186,4095,4095,4095
0.817704488000004,4095,3897,3431
0.8204108969999879,4095,4095,4095
0.8231135569999992,4095,581,2650
0.825810424999986,4095,4095,4095
0.828503043000012,4095,3529,3427
0.8311949949999757,4095,4095,4095
0.8338895300000218,4095,2627,3198
0.8365798979999681,4095,4095,3697
0.839277390999996,4095,4095,4095
0.8419690089999676,4095,4095,4095
0.8446582939999985,4095,4095,4095
0.8473500779999767,4095,1995,2973
0.8500410299999999,4095,3559,3633
0.8527312730000176,4095,1666,2780
0.8554224740000222,4095,4095,4095
0.8581130919999964,4095,4095,3449
0.8608062939999854,4095,4095,4095
0.8635002870000221,4095,2193,3149
0.8661924470000031,4095,4095,4095
0.8688825229999679,4095,4095,3310
0.8715726410000002,4095,4095,4095
0.8742643009999824,4095,3465,3392
0.8769535860000133,4095,4095,3568
0.8796772040000178,4095,4095,4095
0.8823705300000029,4095,3510,3235
0.8850869820000185,4095,4095,4095
0.8877782249999768,4095,1547,2832
0.8904708430000028,4095,4095,4095
0.8931618359999902,4095,368,2577
0.8958545369999911,4095,4095,4095
0.8985457800000063,4095,4095,3417
0.9012384819999966,4095,4095,4095
0.9039279329999772,4095,3904,3503
0.906619218000003,4095,1860,3019
0.9093101699999693,4095,4095,4095
0.9120014129999845,4095,4095,4095
0.9146906560000048,4095,4095,3663
0.9173802319999709,4095,4095,3455
0.9200890590000199,4095,3879,3742
0.9227939680000077,4095,832,2575
0.9254873780000139,4095,4095,4095
0.9281786209999723,4095,2310,3165
0.9308707389999995,4095,4095,4095
0.9335621490000108,4095,1825,2983
0.9362521840000113,4095,4095,4095
0.9389528439999708,4095,4095,3056
0.9416462529999876,4095,4095,4095
0.9443370799999684,4095,4095,3884
0.9470309899999734,4095,2189,3152
0.9497206489999712,4095,3617,3171
0.9524109760000101,4095,3834,3277
0.9551032609999766,4095,4095,4095
0.9578015039999741,4095,3739,3408
0.9604938300000185,4095,4095,4095
0.9631835729999807,4095,925,2753
0.9658769829999869,4095,4095,4095
0.9685670179999875,4095,4095,3452
0.9712574270000118,4095,4095,4095
0.9739512539999851,4095,2802,3218
0.9766400390000172,4095,4095,3710
0.9793312400000218,4095,4095,4095
0.9820224420000159,4095,4095,4095
0.9847121429999675,4095,4095,4095
0.9874044279999907,4095,1840,2938
0.9900952539999821,4095,4095,3812
0.9927860390000092,4095,1358,2693
0.9954761569999846,4095,4095,4095
0.9981685249999828,4095,4095,3423
1.0009117259999698,4095,4095,4095
1.003632094000011,4095,2373,3183
1.0063265459999684,4095,3920,3281
1.0090439559999709,4095,4095,2795
1.0117379490000076,4095,4095,4095
1.0144307329999833,4095,4095,3501
1.0171487260000163,4095,4095,3571
1.0198851779999814,4095,2768,3195
1.022620045999986,4095,2407,3041
1.0253226639999866,4095,4095,4095
1.028014282000015,4095,2013,3009
1.0307083579999698,4095,4095,4095
1.033400434999976,4095,1344,2834
1.0360903860000121,4095,4095,4095
1.0387852129999828,4095,4095,3383
1.0414792060000195,4095,4095,4095
1.0441697819999831,4095,4095,3664
1.046861524999997,4095,2173,3046
1.0495528100000229,4095,4095,4095
1.0522452619999854,4095,4095,4095
1.0549407959999826,4095,4095,3337
1.0576322059999939,4095,3809,3402
1.060323531999984,4095,4095,4095
1.06301560899999,4095,381,2588
1.0657085600000187,4095,4095,4095
1.068400386999997,4095,3307,3360
1.0710920880000003,4095,4095,4095
1.073785789999988,4095,2352,3136
1.0764750330000084,4095,4095,3766
1.0791660680000064,4095,4095,2832
1.0818578519999846,4095,4095,4095
1.0845488869999826,4095,4095,4095
1.0872569630000157,4095,2085,3008
1.089948872999969,4095,2639,3236
1.0926401159999841,4095,2173,2942
1.0953340679999997,4095,4095,4095
1.0980258110000136,4095,4095,3478
1.1007159709999996,4095,4095,4095
1.1034090050000032,4095,1929,3057
1.1061011229999735,4095,4095,4095
1.1087930329999836,4095,4095,3639
1.111483776,4095,4095,4095
1.1141756439999995,4095,3295,3319
1.116866970999979,4095,4095,3567
1.119561589,4095,4095,4095
1.1222680399999945,4095,4095,4095
1.124967407999975,4095,4095,4095
1.1276959850000026,4095,1603,2863
1.130389686000001,4095,4095,4095
1.133104553999999,4095,253,2517
1.1357960469999853,4095,4095,4095
1.1384897899999942,4095,4095,3399
1.1411821169999712,4095,4095,4095
1.1438722350000035,4095,3413,3408
1.1465632279999909,4095,2110,3056
1.1492552629999864,4095,4095,2659
1.15194621400002,4095,4095,4095
1.1546379569999772,4095,4095,3642
1.1573292840000136,4095,4095,3531
1.1600185689999876,4095,3061,3454
1.162711145000003,4095,1283,2672
1.165407512999991,4095,4095,4095
1.1680967560000113,4095,2134,3118
1.170789582999987,4095,4095,4095
1.1734808260000023,4095,1456,2870
1.1761706940000067,4095,4095,4095
1.1788620620000074,4095,4095,3408
1.1815670130000058,4095,4095,4095
1.1842595059999894,4095,4095,3818
1.1869519159999982,4095,2190,3181
1.1896422009999696,4095,4095,4095
1.1923331109999822,4095,4095,4095
1.195023770999967,4095,4095,3515
1.1977150970000139,4095,3822,3405
1.2004056729999775,4095,4095,4095
1.2030960419999701,4095,623,2663
1.2057902429999672,4095,4095,4095
1.208479610999973,4095,3842,3440
1.211171520999983,4095,4095,4095
1.213865014000021,4095,2527,3183
1.2165562569999793,4095,4095,3794
1.2192902919999824,4095,4095,3030
1.222003117999975,4095,4095,4095
1.2246967359999985,4095,4095,4095
1.2273875629999793,4095,1971,2919
1.2300804309999762,4095,4029,3855
1.232772257000022,4095,1395,2703
1.2354602919999707,4095,4095,4095
1.238160702000016,4095,4087,3424
1.2408508199999915,4095,4095,4095
1.2435431050000147,4095,2381,3170
1.246236639000017,4095,4095,4095
1.248928090999982,4095,4095,3113
1.2516196259999788,4095,4095,4095
1.2543117019999954,4095,3791,3433
1.2570029450000106,4095,4095,3607
1.2597289379999665,4095,4095,4067
1.262421513999982,4095,3008,3216
1.2651128410000183,4095,4095,4095
1.2678027090000228,4095,1618,2861
1.270494369000005,4095,4095,4095
1.2731851120000215,4095,405,2598
1.2758753129999718,4095,4095,4095
1.2785668899999791,4095,4034,3385
1.2812567999999942,4095,4095,4095
1.2839469179999696,4095,3856,3499
1.2866392020000035,4095,2020,3088
1.2893290709999974,4095,4095,4095
1.2920193549999794,4095,4095,4095
1.2947118899999737,4095,4095,3760
1.2974034659999916,4095,4095,3469
1.3000940430000014,4095,4085,3835
1.3027851609999743,4095,737,2559
1.3054756120000093,4095,4095,4095
1.308166271999994,4095,2256,3152
1.3108590150000055,4095,4095,4095
1.3135498419999863,4095,1735,2942
1.3162388769999893,4095,4095,4095
1.3189294530000097,4095,4095,3431
1.3216276960000073,4095,4095,4095
1.324319064000008,4095,4095,3918
1.327011223999989,4095,2245,3184
1.329700341999967,4095,3522,3184
1.3323896269999977,4095,4095,3315
1.3350824949999947,4095,4095,4095
1.3377731549999794,4095,4043,3427
1.3404644809999695,4095,4095,4095
1.3431570160000206,4095,893,2738
1.3458490919999804,4095,4095,4095
1.348539044000006,4095,3925,3440
1.3512307450000094,4095,4095,4095
1.3539226130000088,4095,2742,3225
1.3566124810000133,4095,4095,3806
1.3593027659999848,4095,4095,4095
1.3620151759999999,4095,4095,4095
1.364703793999979,4095,4095,4095
1.367395369999997,4095,1763,2903
1.3700872389999859,4095,4095,4095
1.3727862729999742,4095,1337,2691
1.3754855159999693,4095,4095,4095
1.3781796339999914,4095,4095,3462
1.3808732530000043,4095,4095,4095
1.3835650789999931,4095,2439,3190
1.386256364000019,4095,4095,4095
1.3889452739999797,4095,4095,3153
1.3916363920000094,4095,4095,4095
1.394327593000014,4095,3869,3469
1.397045210999977,4095,4095,3625
1.399737038000012,4095,4095,3923
1.4024292390000141,4095,2912,3211
1.405123064999998,4095,4095,4095
1.407813142000009,4095,1586,2832
1.4105093850000117,4095,4095,4095
1.4132005860000163,4095,453,2613
1.4158911629999693,4095,4095,4095
1.4185810309999738,4095,4095,3392
1.421298357000012,4095,4095,4095
1.4240055999999868,4095,3978,3498
1.4267062600000031,4095,1934,3083
1.4294269609999901,4095,4095,4095
1.4321399959999894,4095,4095,4095
1.4348479060000159,4095,4095,3815
1.4375468160000082,4095,4029,3447
1.440244808999978,4095,4095,4095
1.4429430100000218,4095,241,2522
1.4456400870000152,4095,4095,4095
1.4483315379999908,4095,3136,3314
1.45102853100002,4095,4095,4095
1.4537259819999804,4095,2163,3115
1.4564218090000054,4095,4095,3876
1.4591216769999846,4095,4095,2888
1.4618192529999874,4095,4095,4095
1.4645124549999764,4095,4095,4095
1.4672100309999792,4095,2176,3088
1.4699088990000178,4095,2619,3227
1.472603850999974,4095,2303,2989
1.4752974269999868,4095,4095,4095
1.4779952119999962,4095,4054,3402
1.480689204999976,4095,4095,4095
1.48338628099998,4095,1878,3055
1.486084357999971,4095,4095,4095
1.4887767259999691,4095,4095,3632
1.4914728439999863,4095,4095,4095
1.4941694620000021,4095,3344,3344
1.4968642889999728,4095,4095,3677
1.4995601979999833,4095,4095,4095
1.5022579829999927,4095,4095,4095
1.5049516010000161,4095,4095,4095
1.5076753440000061,4095,1645,2864
1.510373254000001,4095,4095,4095
1.5130975390000003,4095,241,2494
1.515791782000008,4095,4095,4095
1.5184866079999892,4095,4095,3402
1.5211844350000092,4095,4095,4095
1.523901803000001,4095,3510,3440
1.526612129,4095,2153,2961
1.5293118719999939,4095,4095,4095
1.5320041150000065,4095,4095,4095
1.534704775000023,4095,4095,3725
1.5373988100000133,4095,4095,3435
1.540092718999972,4095,4095,3846
1.5427901289999681,4095,592,2523
1.5454872060000184,4095,4095,4095
1.5481801149999797,4095,2682,3166
1.5508838580000202,4095,4095,4095
1.5535839770000166,4095,1738,2951
1.5562786360000018,4095,4095,4095
1.5589757959999702,4095,4095,3067
1.5616737469999862,4095,4095,4095
1.5643662819999804,4095,4095,4095
1.5670640669999898,4095,2309,3165
1.5697627270000112,4095,2947,3181
1.5724555119999764,4095,3330,3233
1.5751504209999894,4095,4095,4095
1.5778472480000119,4095,3967,3434
1.5805411569999706,4095,4095,4095
1.5832382759999746,4095,1321,2841
1.5859354350000103,4095,4095,4095
1.5886293450000153,4095,4049,3524
1.5913256709999928,4095,4095,4095
1.5940212059999794,4095,3055,3264
1.5967184080000152,4095,4095,3673
1.599419566999984,4095,4095,4095
1.6021170189999907,4095,4095,4095
1.6048184699999979,4095,4095,4095
1.6075157550000085,4095,1808,2944
1.6102106230000004,4095,4095,4095
1.612902240999972,4095,624,2538
1.615598150999972,4095,4095,4095
1.6182945609999706,4095,3856,3376
1.620988720000014,4095,4095,4095
1.6237663379999958,4095,2835,3253
1.62648137299999,4095,2930,3215
1.629180157999997,4095,4095,2816
1.6318692759999749,4095,4095,4095
1.6345649360000039,4095,4095,3598
1.637260719999972,4095,4095,3552
1.6399545879999664,4095,2803,3333
1.6426523729999758,4095,1294,2683
1.645347615999981,4095,4095,4095
1.6480426509999688,4095,2080,3101
1.6507403109999927,4095,4095,4095
1.6534367209999914,4095,1360,2847
1.6561307139999712,4095,4095,4095
1.658828206999999,4095,4081,3348
1.661526992000006,4095,4095,4095
1.664222484999982,4095,4095,3873
1.6669172690000096,4095,2259,3185
1.6696143039999924,4095,4095,4095
1.6723087139999961,4095,4095,4095
1.6750040819999867,4095,4095,3187
1.677700657999992,4095,3728,3365
1.6803933599999823,4095,4095,4095
1.683087769999986,4095,743,2704
1.6857834289999687,4095,4095,4095
1.6884770890000027,4095,3713,3472
1.6911739569999895,4095,4095,4095
1.6938744920000204,4095,2647,3204
1.696568109999987,4095,4095,3765
1.6992658529999858,4095,4095,4095
1.7019618460000174,4095,4095,4095
1.704656923000016,4095,4095,4095
1.707353291000004,4095,1892,2975
1.7100493670000105,4095,3723,3653
1.712741818999973,4095,1495,2724
1.7154378949999796,4095,4095,4095
1.7181360129999916,4095,4095,3472
1.7208305899999914,4095,4095,4095
1.7235465829999725,4095,2368,3178
1.726261409000017,4095,4095,4095
1.7289616520000095,4095,4095,3047
1.7316886869999735,4095,4095,4095
1.7343853049999893,4095,4095,3503
1.7370993399999861,4095,4095,3632
1.7397951660000217,4095,2800,3165
1.7424912419999714,4095,2646,3153
1.7451905689999876,4095,4095,4095
1.7478841450000004,4095,1788,2993
1.7505802630000176,4095,4095,4095
1.753276547999974,4095,765,2691
1.7559721239999817,4095,4095,4095
1.7586702009999726,4095,4094,3347
1.761366943999974,4095,4095,4095
1.7640609370000107,4095,4095,3616
1.7667579719999935,4095,1855,3039
1.7694550069999764,4095,4095,4095
1.7721487910000064,4095,4095,4095
1.7748463679999986,4095,4095,3793
1.7775421939999774,4095,4095,3446
1.7802367709999771,4095,4095,4095
1.7829346390000183,4095,250,2528
1.7856302149999692,4095,4095,4095
1.7883259999999837,4095,3251,3286
1.791023784999993,4095,4095,4095
1.7937213189999852,4095,2241,3134
1.7964140619999966,4095,4095,3859
1.799110971999994,4095,4095,2880
1.8018069649999688,4095,4095,4095
1.8045001670000147,4095,4095,4095
1.8071986599999832,4095,2075,3024
1.8098955699999806,4095,2665,3253
1.8125877289999721,4095,2480,3071
1.815283222000005,4095,4095,4095
1.8179799659999958,4095,4060,3472
1.8206810840000003,4095,4095,4095
1.823409077000008,4095,1930,3035
1.8261208609999926,4095,4095,4095
1.8288211880000063,4095,4095,3744
1.8315174310000089,4095,4095,4095
1.8342165070000078,4095,3572,3399
1.83691808399999,4095,4095,3639
1.8396128269999963,4095,4095,4095
1.8423100699999964,4095,4095,3332
1.8450052299999697,4095,4095,4095
1.8477279730000191,4095,1488,2826
1.850425298999994,4095,4095,4095
1.8531232920000207,4095,320,2559
1.855816243999982,4095,4095,4095
1.8585122370000136,4095,4095,3355
1.861209520999978,4095,4095,4095
1.863902763999988,4095,3622,3429
1.8665973409999879,4095,2095,3084
1.8692942089999747,4095,4095,4095
1.8719860350000204,4095,4095,4095
1.8746822790000124,4095,4095,3699
1.8773783130000083,4095,4095,3513
1.880070723000017,4095,4095,3847
1.8827704660000109,4095,699,2559
1.8854692090000071,4095,4095,4095
1.8881637439999963,4095,2526,3182
1.8908597789999817,4095,4095,4095
1.8935571879999884,4095,1702,2928
1.8962498899999787,4095,4095,4095
1.8989471749999893,4095,4095,3067
1.9016443759999788,4095,4095,4095
1.9043385780000222,4095,4095,3921
1.907036570999992,4095,2327,3179
1.909732522000013,4095,2945,3136
1.9124255149999954,4095,3487,3246
1.9151211330000137,4095,4095,4095
1.917819000999998,4095,3913,3408
1.92051332799997,4095,4095,4095
1.9232059039999854,4095,1264,2842
1.9259573969999906,4095,4095,4095
1.9286818479999965,4095,4095,3606
1.9313791750000178,4095,4095,4095
1.9340703350000013,4095,3199,3312
1.9367609939999966,4095,4095,3696
1.9394607379999798,4095,4095,4095
1.942151980999995,4095,4095,4095
1.9448411820000047,4095,4095,4095
1.9475346749999858,4095,1677,2886
1.9502304600000002,4095,4095,4095
1.9529225779999706,4095,535,2516
1.9556137789999752,4095,4095,4095
1.9583055639999998,4095,4095,3421
1.9610737240000162,4095,4095,4095
1.9637697590000016,4095,2906,3248
1.9664640849999842,4095,2464,3024
1.9691567450000207,4095,4095,2634
1.9718471959999988,4095,4095,4095
1.9745382730000074,4095,4095,3535
1.9772301819999711,4095,4095,3502
1.979921924999985,4095,2669,3275
1.98261641900001,4095,1826,2805
1.985307287000012,4095,4095,4095
1.9880001550000088,4095,2047,2989
1.9906896900000106,4095,4095,4095
1.9934073079999735,4095,1277,2800
1.9961632999999779,4095,4095,4095
1.9988629189999756,4095,4095,3399
2.0016244949999873,4095,4095,4095
2.0043434880000177,4095,4095,3889
2.007038938999983,4095,2213,3153
2.0097322660000145,4095,3058,3162
2.0124260919999983,4095,3499,3258
2.015119377000019,4095,4095,4095
2.017811578000021,4095,3928,3424
2.0205014879999794,4095,4095,4095
2.023221356000022,4095,1072,2779
2.0259289329999888,4095,4095,4095
2.0286728840000023,4095,4095,3519
2.031459417999997,4095,4095,4095
2.034153577999973,4095,3410,3351
2.036843112999975,4095,4095,3616
2.041001477000009,4095,4095,4095
2.043762720000018,4095,4095,4095
2.0464598379999757,4095,2619,2938
2.049153080999986,4095,4095,2542
2.051843199000018,4095,4095,4095
2.054534192999995,4095,4095,3607
2.0572269360000064,4095,4095,3626
2.0599350119999826,4095,2607,3267
2.06263917199999,4095,1585,2745
2.0653352900000073,4095,4095,4095
2.068026158000009,4095,2147,3107
2.0707169840000006,4095,4095,4095
2.073407935999967,4095,1314,2830
2.076099886999998,4095,4095,4095
2.0787945889999833,4095,4095,3411
2.0814861229999906,4095,4095,4095
2.0841754919999858,4095,4095,3701
2.0868656509999823,4095,2171,3120
2.089556769000012,4095,4095,4095
2.092245804000015,4095,4095,4095
2.0949385889999803,4095,4095,3312
2.097632415000021,4095,4065,3439
2.1003234919999727,4095,4095,4095
2.1030132349999917,4095,465,2608
2.1057052279999766,4095,4095,4095
2.1083958460000076,4095,3451,3357
2.111090380999997,4095,4095,4095
2.11378283199997,4095,2477,3174
2.11647399200001,4095,4095,3839
2.119166235000023,4095,4095,2919
2.1218563529999983,4095,4095,4095
2.1245645129999957,4095,4095,4095
2.1272693390000086,4095,2144,3016
2.129979665999997,4095,2935,3365
2.1326717009999925,4095,1794,2814
2.135362110000017,4095,4095,4095
2.138052727999991,4095,4037,3439
2.1407409299999927,4095,4095,4095
2.1434385059999954,4095,2131,3142
2.1461319160000016,4095,4095,4095
2.148828825999999,4095,4095,3261
2.1515224440000225,4095,4095,4095
2.1542152289999876,4095,3582,3413
2.1569054720000054,4095,4095,3632
2.1595972979999942,4095,4095,4095
2.1622884999999883,4095,4095,4037
2.164980825999976,4095,4095,4095
2.1677162359999897,4095,1463,2826
2.170407312000009,4095,4095,4095
2.1731058049999774,4095,279,2555
2.175797339999974,4095,4095,4095
2.1784905829999843,4095,4095,3379
2.181182910000018,4095,4095,4095
2.1838736109999672,4095,3562,3412
2.186564020999981,4095,2172,2961
2.1892537219999895,4095,4095,4095
2.1919440899999927,4095,4095,4095
2.194635249999976,4095,4095,3671
2.1973259519999715,4095,4095,3478
2.200016110999968,4095,3387,3571
2.202708646000019,4095,1029,2609
2.2054042230000164,4095,4095,4095
2.2080968409999855,4095,2371,3174
2.2107890419999876,4095,4095,4095
2.2134818270000096,4095,1566,2871
2.216170362000014,4095,4095,4095
2.21886106300002,4095,4095,3392
2.2215526809999915,4095,4095,4095
2.2242877570000132,4095,4095,3869
2.2270039169999905,4095,2219,3029
2.229715118999991,4095,3649,3200
2.2324073620000036,4095,3789,3268
2.235097937999967,4095,4095,4095
2.2377880149999783,4095,3952,3431
2.2404764660000183,4095,4095,4095
2.243167916999994,4095,1180,2800
2.2458625350000148,4095,4095,4095
2.248562487000015,4095,3843,3482
2.251298188000021,4095,4095,4095
2.2540091399999937,4095,2919,3248
2.256702132999976,4095,4095,3728
2.2593936669999835,4095,4095,4095
2.2620847019999815,4095,4095,4095
2.2647745290000216,4095,4095,4095
2.267468062999967,4095,1698,2899
2.2701588900000047,4095,4095,4095
2.2728488829999947,4095,829,2559
2.2755400839999993,4095,4095,4095
2.278231243999983,4095,4095,3454
2.280919611999991,4095,4095,4095
2.2836113970000156,4095,2752,3254
2.2863043069999662,4095,3696,3239
2.2889971330000094,4095,4095,2749
2.291724667999972,4095,4095,4095
2.2944179109999823,4095,4095,3574
2.2971092369999724,4095,4095,3685
2.2997990640000125,4095,2832,3196
2.302490139999975,4095,2442,3045
2.305179341999974,4095,4095,4095
2.3078680020000206,4095,1654,2933
2.310557535999976,4095,4095,4095
2.3132484879999993,4095,795,2716
2.315939189000005,4095,4095,4095
2.3186332239999956,4095,4095,3394
2.321323508999967,4095,4095,4095
2.324014293999994,4095,4095,3600
2.3267279529999882,4095,1849,3039
2.3294414459999757,4095,4095,4095
2.332140605999996,4095,4095,4095
2.3348350159999995,4095,4095,3824
2.3375251759999855,4095,3993,3429
2.340215334999982,4095,4095,4095
2.342906120000009,4095,255,2523
2.3455969049999794,4095,4095,4095
2.348290772999974,4095,3206,3290
2.3509859739999683,4095,4095,4095
2.353679176000014,4095,2211,3088
2.3563711269999885,4095,4095,3920
2.3590636619999827,4095,4095,2839
2.3617620719999763,4095,4095,4095
2.364451523000014,4095,4095,4095
2.367143100000021,4095,2298,3040
2.3698346339999716,4095,2407,3190
2.3725253779999775,4095,2637,3185
2.375217786999997,4095,4095,4095
2.377909030000012,4095,4017,3435
2.3806043569999815,4095,4095,4095
2.3832993919999694,4095,1691,2986
2.3859918009999888,4095,4095,4095
2.388681878,4095,4095,3597
2.3913747459999968,4095,4095,4095
2.3940668220000134,4095,3163,3302
2.3967568989999677,4095,4095,3670
2.399449641999979,4095,4095,4095
2.402141302000018,4095,4095,4095
2.4048359610000034,4095,4095,4095
2.407527912999967,4095,1728,2915
2.410218613999973,4095,4095,4095
2.4129108160000214,4095,508,2517
2.4156181839999817,4095,4095,4095
2.4183265099999858,4095,4095,3402
2.421051294999984,4095,4095,4095
2.423744955000018,4095,2997,3310
2.4264562810000143,4095,2303,3119
2.429161941000018,4095,4095,2624
2.4318613089999985,4095,4095,4095
2.4345558439999877,4095,4095,3607
2.437246253000012,4095,4095,3521
2.4399364550000087,4095,2771,3314
2.442627447999996,4095,1454,2710
2.4453194829999916,4095,4095,4095
2.4480106419999856,4095,2000,3024
2.4507028019999666,4095,4095,4095
2.4533923369999684,4095,1318,2830
2.4560817469999847,4095,4095,4095
2.4587733230000026,4095,4038,3372
2.4614653159999875,4095,4095,4095
2.4641556429999696,4095,4095,3684
2.4668483020000167,4095,2224,3184
2.469537920999983,4095,4095,4095
2.472227872000019,4095,4095,4095
2.4749187819999747,4095,4095,3249
2.4776135660000023,4095,3710,3367
2.4803063509999674,4095,4095,4095
2.482997968999996,4095,439,2618
2.4856897540000205,4095,4095,4095
2.48837916399998,4095,3392,3359
2.491070239999999,4095,4095,4095
2.4937622749999946,4095,2416,3159
2.496451601999979,4095,4095,3839
2.499141844999997,4095,4095,2893
2.5018320880000147,4095,4095,4095
2.504521330999978,4095,4095,4095
2.5072123240000224,4095,2213,3056
2.509906108999985,4095,2811,3299
2.512598809999986,4095,2103,2911
2.5152908449999813,4095,4095,4095
2.517982045999986,4095,4080,3438
2.520670664000022,4095,4095,4095
2.5233631990000163,4095,1903,3085
2.5260539010000116,4095,4095,4095
2.5287686439999675,4095,4095,3644
2.5314630529999818,4095,4095,4095
2.5341575470000066,4095,3456,3389
2.536845748000019,4095,4095,3621
2.5395345740000153,4095,4095,4095
2.542232442999989,4095,4095,4095
2.544922976999999,4095,4095,4095
2.547613594999973,4095,1605,2849
2.5503058799999963,4095,4095,4095
2.5529951649999703,4095,266,2494
2.555724741000006,4095,4095,4095
2.558417358999975,4095,4059,3363
2.561110561000021,4095,4095,4095
2.5637995540000134,4095,3292,3365
2.566491380000002,4095,2242,3085
2.569183539999983,4095,4095,2627
2.5718757419999747,4095,4095,4095
2.5745680260000086,4095,4095,3658
2.5772603529999856,4095,4095,3505
2.5799508459999743,4095,2871,3393
2.5826445060000083,4095,1277,2660
2.5853343740000128,4095,4095,4095
2.5880237839999722,4095,2075,3003
2.590714984999977,4095,4095,4095
2.593406019999975,4095,1421,2842
2.5960959290000005,4095,4095,4095
2.598787173000005,4095,4095,3403
2.6014783319999992,4095,4095,4095
2.6041693249999867,4095,4095,3695
2.606861859999981,4095,2224,3089
2.609553687000016,4095,4095,4095
2.6122429299999794,4095,4095,4095
2.614934964999975,4095,4095,3230
2.617628749000005,4095,3907,3406
2.620321366999974,4095,4095,4095
2.623012901999971,4095,511,2642
2.625738061999982,4095,4095,4095
2.628437304999977,4095,3446,3382
2.631139840000003,4095,4095,4095
2.633847082999978,4095,2624,3182
2.6365358670000205,4095,4095,3823
2.639224985999988,4095,4095,4095
2.6419143539999936,4095,4095,4095
2.6446021799999926,4095,4095,4095
2.6472925900000064,4095,1819,2931
2.649984125000003,4095,3423,3600
2.652672659000018,4095,1664,2770
2.6553631940000173,4095,4095,4095
2.6580528540000046,4095,4067,3421
2.6607433049999827,4095,4095,4095
2.663432006999983,4095,2180,3136
2.6661214169999994,4095,4095,4095
2.6688124930000185,4095,4095,3225
2.6715046529999995,4095,4095,4095
2.674194729000021,4095,3527,3380
2.6768846389999794,4095,4095,3610
2.679576340999972,4095,4095,4095
2.6822669169999926,4095,4095,4051
2.684955909999985,4095,4095,4095
2.6876824859999715,4095,1648,2786
2.690376479000008,4095,4095,4095
2.6930905560000156,4095,320,2548
2.6957812160000003,4095,4095,4095
2.698473541999988,4095,4095,3427
2.7011675349999678,4095,4095,4095
2.7038588199999936,4095,3402,3408
2.7084736830000224,4095,2112,2951
2.711173842999983,4095,4095,4095
2.7138685859999896,4095,2733,3198
2.716560371000014,4095,4095,3795
2.71925315499999,4095,4095,4095
2.7219463149999683,4095,4095,4095
2.72463697500001,4095,4095,4095
2.727340217999995,4095,1953,2972
2.730033461000005,4095,3909,3643
2.7327247879999845,4095,1349,2691
2.7354224889999728,4095,4095,4095
2.738114356999972,4095,4095,3423
2.7408028919999765,4095,4095,4095
2.7434933430000115,4095,2397,3171
2.746183836,4095,4095,4095
2.748869620999983,4095,4095,3093
2.7515611979999903,4095,4095,4095
2.75425631600001,4095,3693,3413
2.756947600999979,4095,4095,3579
2.7596401769999943,4095,4095,4095
2.7623333369999727,4095,3568,3241
2.765057038000009,4095,4095,4095
2.767750073000002,4095,1425,2833
2.7704439409999964,4095,4095,4095
2.773136684000008,4095,458,2608
2.7758247190000134,4095,4095,4095
2.778515628999969,4095,4095,3398
2.781208079999999,4095,4095,4095
2.783898697999973,4095,3573,3435
2.786590065999974,4095,2041,3043
2.789280767999969,4095,4095,4095
2.7919700520000106,4095,4095,4095
2.7946607119999953,4095,4095,3767
2.7973527049999802,4095,4095,3472
2.800044239999977,4095,4095,3851
2.8027361079999764,4095,731,2550
2.805426768000018,4095,4095,4095
2.8081181360000187,4095,2449,3178
2.810811795999996,4095,4095,4095
2.81350433099999,4095,1802,2959
2.8161964490000173,4095,4095,4095
2.818886317000022,4095,4094,3049
2.821577977000004,4095,4095,4095
2.8242675949999807,4095,4095,3897
2.8269869629999675,4095,2348,3160
2.8296924140000215,4095,4095,3863
2.8323869490000106,4095,3606,3249
2.8350840250000147,4095,4095,4095
2.8377774769999746,4095,3891,3417
2.840466053,4095,4095,4095
2.8431601710000223,4095,1097,2793
2.8458589559999723,4095,4095,4095
2.8485477819999687,4095,4095,3456
2.851239609000004,4095,4095,4095
2.853931352000018,4095,2875,3234
2.856622594999976,4095,4095,3663
2.859314670999993,4095,4095,4095
2.862007456000015,4095,4095,4095
2.864699615999996,4095,4095,4095
2.8673924839999927,4095,1937,2896
2.8700852690000147,4095,4095,4095
2.8727755950000073,4095,961,2623
2.8754677549999883,4095,4095,4095
2.8781600400000116,4095,4095,3401
2.880850866000003,4095,4095,4095
2.883543025999984,4095,2577,3199
2.8862335189999726,4095,4095,4002
2.8889256790000104,4095,4095,3056
2.8916201299999784,4095,4095,4095
2.8943107480000094,4095,3791,3458
2.897001617000001,4095,4095,3537
2.899729484999966,4095,3304,3185
2.9024196029999985,4095,2894,3200
2.9051142210000194,4095,4095,4095
2.907805421999967,4095,1715,2933
2.910497582000005,4095,4095,4095
2.9131881579999686,4095,624,2646
2.915881651999996,4095,4095,4095
2.918573686000002,4095,4065,3357
2.921266220999996,4095,4095,4095
2.923955838999973,4095,4095,3568
2.9266501660000017,4095,1881,3077
2.929351992000022,4095,4095,4095
2.9320446099999913,4095,4095,4095
2.9347371449999855,4095,4095,3821
2.9374354299999936,4095,3917,3404
2.940124088999994,4095,4095,4095
2.942812499000013,4095,370,2503
2.945502325999996,4095,4095,4095
2.948190318999991,4095,2864,3219
2.950881686999992,4095,4095,4095
2.9535723879999978,4095,1924,3011
2.9562627980000116,4095,4095,4095
2.9589579159999744,4095,4095,3046
2.961650992999978,4095,4095,4095
2.9643411519999745,4095,4095,4095
2.967033603999994,4095,2223,3156
2.9697252629999866,4095,2706,3139
2.972416757000019,4095,3386,3248
2.975110083000004,4095,4095,4095
2.9778105759999676,4095,3969,3442
2.9805005690000144,4095,4095,4095
2.9831920620000005,4095,1263,2848
2.9858847219999802,4095,4095,4095
2.988573840000015,4095,4095,3474
2.9912651669999946,4095,4095,4095
2.993957825999985,4095,3059,3271
2.996650611000007,4095,4095,3721
2.99934556300002,4095,4095,4095
3.0020883889999936,4095,4095,4095
3.004806674000008,4095,4095,4095
3.007500332999996,4095,1837,2864
3.01019095099997,4095,4095,4095
3.012882320000017,4095,505,2509
3.015574395999977,4095,4095,4095
3.01826588900002,4095,4095,3424
3.020957091000014,4095,4095,4095
3.0236787089999666,4095,2866,3270
3.026372617999982,4095,2731,3201
3.0290966530000105,4095,4095,2774
3.0317906459999904,4095,4095,4095
3.0344826389999753,4095,4095,3600
3.0371917570000164,4095,4095,3519
3.0399046250000197,4095,2544,3239
3.0426074929999913,4095,1680,2762
3.0453001949999816,4095,4095,4095
3.0479884380000044,4095,2186,3119
3.0506808889999775,4095,4095,4095
3.0533763409999892,4095,1285,2799
3.0560696669999743,4095,4095,4095
3.05876286900002,4095,4095,3403
3.061459237000008,4095,4095,4095
3.0641496050000114,4095,4095,3760
3.0668418479999673,4095,2109,3175
3.0695343830000184,4095,4095,4095
3.0722235420000175,4095,4095,4095
3.0749148269999864,4095,4095,3248
3.077606445000015,4095,3726,3361
3.0802962719999982,4095,4095,4095
3.0829885570000215,4095,537,2638
3.0856816749999894,4095,4095,4095
3.088374626000018,4095,3384,3380
3.091065910999987,4095,4095,4095
3.093765320999978,4095,2405,3148
3.096455105000018,4095,4095,3788
3.0991480569999794,4095,4095,2905
3.101839508000012,4095,4095,4095
3.1045302509999715,4095,4095,4095
3.107220118999976,4095,2096,3040
3.1099118629999793,4095,2992,3359
3.1125998969999955,4095,2112,2914
3.115292889999978,4095,4095,4095
3.1179850500000157,4095,3952,3408
3.1206759180000176,4095,4095,4095
3.123367494999968,4095,2027,3092
3.1260607789999995,4095,4095,4095
3.1287639390000095,4095,4095,3664
3.131456931999992,4095,4095,4095
3.134147799999994,4095,3461,3383
3.136837168999989,4095,4095,3614
3.1395334119999916,4095,4095,4095
3.1422352800000226,4095,4095,4095
3.144924188999994,4095,4095,4095
3.147613890999992,4095,1662,2852
3.1503051760000176,4095,4095,4095
3.1529954599999996,4095,244,2503
3.1557260779999865,4095,4095,4095
3.1584188630000085,4095,4095,3407
3.161111355999992,4095,4095,4095
3.1638023489999796,4095,3440,3421
3.1664962589999845,4095,2183,2997
3.169187668999996,4095,4095,2623
3.17187828699997,4095,4095,4095
3.1745681130000207,4095,4095,3652
3.177258982000012,4095,4095,3462
3.179949850000014,4095,3029,3428
3.182642467999983,4095,1233,2667
3.185333127999968,4095,4095,4095
3.188022536999995,4095,2164,3133
3.190714822000018,4095,4095,4095
3.1934069399999885,4095,1407,2835
3.196097641999984,4095,4095,4095
3.1987882180000042,4095,4095,3374
3.201479168999981,4095,4095,4095
3.204170121000004,4095,4095,3779
3.206865697000012,4095,2045,3135
3.20955673200001,4095,4095,4095
3.2122491839999725,4095,4095,4095
3.2149409269999865,4095,4095,3434
3.2176327529999753,4095,3711,3382
3.2203226629999904,4095,4095,4095
3.223012739000012,4095,575,2642
3.2257040659999916,4095,4095,4095
3.228433516999985,4095,3546,3319
3.2311405519999994,4095,4095,4095
3.2338367119999702,4095,2649,3201
3.2365264129999787,4095,4095,3840
3.2392255309999882,4095,4095,4095
3.241917858000022,4095,4095,4095
3.2446082669999896,4095,4095,4095
3.2472993019999876,4095,1970,2971
3.2499911279999765,4095,3463,3548
3.2526808299999743,4095,1616,2767
3.2553722810000068,4095,4095,4095
3.2580657329999667,4095,4077,3408
3.2607546840000055,4095,4095,4095
3.263448718999996,4095,2227,3164
3.2661404199999993,4095,4095,4095
3.268830539000021,4095,4095,3120
3.2715235729999677,4095,4095,4095
3.2742162750000148,4095,3559,3430
3.2769078929999864,4095,4095,3581
3.27959959399999,4095,4095,4095
3.282291712000017,4095,3988,3280
3.284982329999991,4095,4095,4095
3.287707781999984,4095,1473,2813
3.29040173300001,4095,4095,4095
3.2930948100000137,4095,363,2576
3.2957866360000025,4095,4095,4095
3.2984786289999874,4095,4019,3377
3.3011689969999907,4095,4095,4095
3.303861531999985,4095,3622,3453
3.306553608999991,4095,2093,3103
3.3092456850000076,4095,4095,4095
3.311936677999995,4095,4095,4095
3.3146282129999918,4095,4095,3653
3.317321664000019,4095,4095,3453
3.320011281999996,4095,3651,3648
3.322701608999978,4095,843,2573
3.325392227000009,4095,4095,4095
3.328082136999967,4095,2478,3175
3.3307799629999977,4095,4095,4095
3.333474664999983,4095,1620,2907
3.3361671579999665,4095,4095,4095
3.338861484000006,4095,4095,3227
3.3415578940000046,4095,4095,4095
3.3442498869999895,4095,4095,3860
3.346939754999994,4095,2177,3167
3.3496311650000052,4095,3917,3216
3.3523222000000032,4095,4095,4095
3.3550116929999945,4095,4095,4095
3.357701643999974,4095,3882,3402
3.360390511999981,4095,4095,4095
3.363088547000018,4095,858,2735
3.365791623000007,4095,4095,4095
3.3684832409999785,4095,3733,3454
3.3711766509999848,4095,4095,4095
3.3738850189999994,4095,2800,3217
3.3765831370000114,4095,4095,3674
3.379277547000015,4095,4095,4095
3.3819757900000127,4095,4095,4095
3.3846662419999802,4095,4095,4095
3.387361735000013,4095,1811,2915
3.3900525610000045,4095,4095,4095
3.3927425129999733,4095,1312,2687
3.3954334219999964,4095,4095,4095
3.3981266239999854,4095,4044,3406
3.4008171589999847,4095,4095,4095
3.403509026999984,4095,2390,3175
3.406203311000013,4095,4095,4095
3.408895470999994,4095,4095,3042
3.411587630999975,4095,4095,4095
3.414279749000002,4095,3878,3454
3.416969908999988,4095,4095,3531
3.419699610000009,4095,4095,3797
3.4223946870000077,4095,2960,3211
3.4251540129999967,4095,4095,4095
3.427882755999974,4095,1603,2835
3.4305891239999937,4095,4095,4095
3.4333009089999678,4095,979,2752
3.4360021520000146,4095,4095,4095
3.438699435999979,4095,4095,3385
3.4414036800000076,4095,4095,4095
3.4440948810000123,4095,4095,3664
3.4467887910000172,4095,2033,3147
3.449485574999983,4095,4095,4095
3.4521736940000096,4095,4095,4095
3.454864062000013,4095,4095,3330
3.457557763000011,4095,3963,3410
3.4602494229999934,4095,4095,4095
3.462941833000002,4095,311,2574
3.4656341589999897,4095,4095,4095
3.4683263609999813,4095,3235,3347
3.471019561999981,4095,4095,4095
3.47371122200002,4095,2281,3129
3.476400548000015,4095,4095,3811
3.4790933329999802,4095,4095,2832
3.4817855339999824,4095,4095,4095
3.4844759019999856,4095,4095,4095
3.4871646459999965,4095,2154,3078
3.4898551800000064,4095,2646,3230
3.492544797999983,4095,2503,3137
3.4952353329999823,4095,4095,4095
3.497926075999999,4095,4095,3456
3.500617735999981,4095,4095,4095
3.5033104379999713,4095,1839,3014
3.5060028890000012,4095,4095,4095
3.5086920489999898,4095,4095,3655
3.5113829590000023,4095,4095,4095
3.51407336799997,4095,3299,3335
3.5167635699999664,4095,4095,3622
3.519455729000015,4095,4095,4095
3.522156097999982,4095,4095,4095
3.5248513409999873,4095,4095,4095
3.5275454590000095,4095,1685,2817
3.5302428690000056,4095,4095,4095
3.5329329030000167,4095,373,2497
3.535626562999994,4095,4095,4095
3.538316764000001,4095,4095,3378
3.5410475069999734,4095,4095,4095
3.5437435009999945,4095,3082,3311
3.5464335350000056,4095,2337,3120
3.5491234450000206,4095,4095,2646
3.551812438000013,4095,4095,4095
3.55450876499998,4095,4095,3615
3.5572032580000155,4095,4095,3521
3.559891751000009,4095,2677,3264
3.562583368999981,4095,1618,2734
3.565274611999996,4095,4095,4095
3.5679628969999726,4095,2112,3066
3.5706542230000196,4095,4095,4095
3.57334692500001,4095,1296,2819
3.576038251,4095,4095,4095
3.578731285999993,4095,4095,3425
3.5814248620000058,4095,4095,4095
3.584114064000005,4095,4095,3691
3.5868066400000203,4095,1990,3109
3.5894978000000037,4095,4095,4095
3.5921869179999817,4095,4095,4095
3.594878869000013,4095,4095,3313
3.5975688629999922,4095,3886,3419
3.6002583970000046,4095,4095,4095
3.6029500989999974,4095,340,2577
3.605639258999986,4095,4095,4095
3.608330835000004,4095,3412,3385
3.611024327999985,4095,4095,4095
3.6137170709999964,4095,2320,3142
3.6164079389999984,4095,4095,3875
3.6191005569999675,4095,4095,2886
3.6217915089999906,4095,4095,4095
3.624480959999971,4095,4095,4095
3.6271722870000076,4095,2118,3069
3.629868445999989,4095,2571,3239
3.6325603980000096,4095,2317,3015
3.635252973999968,4095,4095,4095
3.6379439670000124,4095,4095,3467
3.6406345020000117,4095,4095,4095
3.6433348699999897,4095,1873,3023
3.646024071999989,4095,4095,4095
3.6487130649999813,4095,4095,3696
3.6514023909999764,4095,4095,4095
3.6540918009999928,4095,3312,3331
3.6567808780000064,4095,4095,3632
3.6594728709999913,4095,4095,4095
3.662163905,4095,4095,4095
3.664855564999982,4095,4095,4095
3.667550849999998,4095,1522,2838
3.670246550999991,4095,4095,4095
3.6729382109999733,4095,381,2497
3.6756312040000125,4095,4095,4095
3.678327072000002,4095,4095,3409
3.6810423989999776,4095,4095,4095
3.683736307999993,4095,3059,3312
3.686430427000005,4095,2475,3168
3.6891229199999884,4095,4095,2688
3.6918131209999956,4095,4095,4095
3.6945046559999923,4095,4095,3618
3.6971956489999798,4095,4095,3519
3.6998859749999724,4095,2589,3261
3.7025789269999905,4095,1555,2736
3.705272294999986,4095,4095,4095
3.7079637460000185,4095,2128,3066
3.7106551979999836,4095,4095,4095
3.7133473989999857,4095,1287,2816
3.7160389339999824,4095,4095,4095
3.718730801999982,4095,4095,3365
3.7214221699999825,4095,4095,4095
3.724111579999999,4095,4095,3723
3.7268032810000022,4095,1951,3106
3.7294948580000096,4095,4095,4095
3.7322004760000027,4095,4095,4095
3.734894177000001,4095,4095,3321
3.737587878999989,4095,3952,3429
3.740279912999995,4095,4095,4095
3.7429840730000024,4095,439,2608
3.74567719099997,4095,4095,4095
3.748365392999972,4095,3441,3403
3.7510550110000054,4095,4095,4095
3.7537448369999993,4095,2437,3152
3.7564329549999798,4095,4095,3834
3.759123031999991,4095,4095,2959
3.7618156919999706,4095,4095,4095
3.7645053509999684,4095,4095,4095
3.7671967609999797,4095,1995,2961
3.7698909210000124,4095,2765,3313
3.7725837890000093,4095,2128,2923
3.775274073999981,4095,4095,4095
3.7779653590000066,4095,4095,3517
3.7806571849999955,4095,4095,4095
3.7833496359999685,4095,1872,2981
3.7860407549999877,4095,4095,4095
3.788730080999983,4095,4095,3632
3.791421323999998,4095,4095,4095
3.79411165099998,4095,3453,3383
3.7968103520000227,4095,4095,3733
3.7995025120000037,4095,4095,4095
3.802197088000014,4095,4095,4095
3.8048893729999804,4095,4095,4095
3.807580740999981,4095,1491,2806
3.8102719419999858,4095,4095,4095
3.812960894000014,4095,299,2493
3.8157262619999983,4095,4095,4095
3.8184223800000154,4095,4095,3391
3.8211142899999686,4095,4095,4095
3.823803823999981,4095,3521,3414
3.8264958589999765,4095,2064,3026
3.8291882269999746,4095,4095,3071
3.831903803999978,4095,4095,4095
3.834598921999998,4095,4095,3687
3.8372900399999708,4095,4095,3486
3.8399810749999688,4095,3457,3591
3.8426728179999827,4095,912,2577
3.84536701899998,4095,4095,4095
3.84805684600002,4095,2353,3141
3.8507458799999768,4095,4095,4095
3.8534356650000063,4095,1626,2915
3.8561239919999935,4095,4095,4095
3.8588144429999716,4095,4095,3411
3.8615059360000146,4095,4095,4095
3.8641956789999767,4095,4095,3925
3.866888588999984,4095,1930,3067
3.8695793740000113,4095,4095,4006
3.872269409000012,4095,4095,4095
3.874959151999974,4095,4095,3165
3.877649685999984,4095,3766,3376
3.880337763,4095,4095,4095
3.8830282979999993,4095,617,2653
3.8857177069999693,4095,4095,4095
3.8884064920000014,4095,3939,3392
3.8910970690000113,4095,4095,4095
3.8937882280000053,4095,2584,3179
3.8964810129999705,4095,4095,3810
3.8991722150000214,4095,4095,3019
3.9018632909999837,4095,4095,4095
3.9045497839999825,4095,4095,4095
3.907239360999995,4095,2080,2980
3.9099299370000153,4095,3273,3507
3.913430135999988,4095,1887,2857
3.9161292960000083,4095,4095,4095
3.9188226229999827,4095,4095,3151
3.921513865999998,4095,4095,4095
3.9242028589999904,4095,4095,3872
3.926894893999986,4095,1997,3056
3.9295859279999945,4095,4095,3927
3.9322848799999974,4095,4095,4095
3.9349795389999827,4095,4095,4095
3.9376751579999905,4095,3789,3408
3.9403644010000107,4095,4095,4095
3.943056351999985,4095,759,2705
3.9457531790000075,4095,4095,4095
3.9484416299999907,4095,4016,3499
3.9511297899999818,4095,4095,4095
3.9538180330000046,4095,2687,3210
3.956507443000021,4095,4095,3713
3.9591979360000096,4095,4095,4095
3.9618899700000156,4095,4095,4095
3.964581879999969,4095,4095,4095
3.9672726229999853,4095,1741,2891
3.9699629499999673,4095,3277,3504
3.972652484999969,4095,1659,2770
3.9753401030000077,4095,4095,4095
3.9780308459999674,4095,4095,3442
3.9807207970000036,4095,4095,4095
3.983412207000015,4095,2241,3149
3.986102575000018,4095,4095,4095
3.988792568000008,4095,4095,3277
3.991483770000002,4095,4095,4095
3.9941935129999706,4095,3565,3407
3.996899546999998,4095,4095,3628
3.999599374000013,4095,4095,4095
4.002348616999996,4095,3739,3263
4.005102692999969,4095,4095,4095
4.0077975190000075,4095,1411,2855
4.010490763000007,4095,4095,4095
4.013182797000013,4095,720,2687
4.015873332000012,4095,4095,4095
4.018564824999999,4095,4093,3378
4.021256777000019,4095,4095,4095
4.023949645000016,4095,4062,3563
4.0266436800000065,4095,1835,3045
4.029335755999966,4095,4095,4095
4.0320326660000205,4095,4095,4095
4.03472453400002,4095,4095,3778
4.037418735000017,4095,3975,3411
4.0401090199999885,4095,4095,4095
4.042801054999984,4095,377,2501
4.045513298000003,4095,4095,4095
4.048225790999993,4095,3030,3270
4.050925409000001,4095,4095,4095
4.0536149019999925,4095,2066,3083
4.056304312000009,4095,4095,4095
4.05900105500001,4095,4095,3045
4.061696005999977,4095,4095,4095
4.064386082999988,4095,4095,4095
4.06707907599997,4095,2114,3101
4.06977286099999,4095,2607,3183
4.072462686999984,4095,2818,3200
4.075155263999989,4095,4095,4095
4.077846547999968,4095,3760,3403
4.080536290999987,4095,4095,4095
4.083228409000014,4095,1583,2929
4.085921486000018,4095,4095,4095
4.088613728999974,4095,4095,3581
4.0913055550000195,4095,4095,4095
4.093997964999971,4095,3120,3274
4.096689167000022,4095,4095,3697
4.099381575999985,4095,4095,4095
4.102073195000003,4095,4095,4095
4.104762729000015,4095,4095,4095
4.107454388999997,4095,1792,2899
4.110145881999983,4095,4095,4095
4.112836125000001,4095,573,2515
4.115526784999986,4095,4095,4095
4.118219361000001,4095,4065,3396
4.120911062999994,4095,4095,4095
4.123606805999998,4095,2869,3263
4.126299506999999,4095,3120,3216
4.1289930419999905,4095,4095,2799
4.131729201999974,4095,4095,4095
4.134428403000015,4095,4095,3534
4.137120729999992,4095,4095,3509
4.139810847999968,4095,2619,3219
4.142502715999967,4095,1913,2845
4.145195084000022,4095,4095,4095
4.147889701999986,4095,1813,2993
4.150581778999992,4095,4095,4095
4.153270355000018,4095,1051,2737
4.155957764999982,4095,4095,4095
4.1586497160000135,4095,4095,3429
4.161339667999982,4095,4095,4095
4.1640314520000175,4095,4095,3637
4.166722154000013,4095,1846,3006
4.169416064000018,4095,4095,4095
4.172106639999981,4095,4095,4095
4.174800549999986,4095,4095,3820
4.17749170999997,4095,4032,3412
4.180181243999982,4095,4095,4095
4.182872529000008,4095,288,2532
4.185565272000019,4095,4095,4095
4.188257140000019,4095,3242,3335
4.190949675000013,4095,4095,4095
4.193639625999992,4095,2191,3120
4.196340202999977,4095,4095,3810
4.199032778999992,4095,4095,2823
4.201724397000021,4095,4095,4095
4.204414973999974,4095,4095,4095
4.207108925,4095,2192,3058
4.20980083500001,4095,2577,3202
4.212489952999988,4095,2719,3184
4.215180987999986,4095,4095,4095
4.21787481399997,4095,3925,3445
4.2205679319999945,4095,4095,4095
4.223258551000015,4095,1696,2972
4.225948919000018,4095,4095,4095
4.2286388699999975,4095,4095,3634
4.231374238000001,4095,4095,4095
4.234077480999986,4095,3143,3312
4.236770141000022,4095,4095,3600
4.239460758999996,4095,4095,4095
4.242152709999971,4095,4095,4095
4.244842911999967,4095,4095,4095
4.247544988000016,4095,1712,2806
4.250237980999998,4095,4095,4095
4.252933557999995,4095,297,2502
4.2556303009999965,4095,4095,4095
4.25836187699997,4095,4002,3381
4.2611099540000055,4095,4095,4095
4.263808154999992,4095,3246,3357
4.26650027300002,4095,2021,3031
4.2691925159999755,4095,4095,4095
4.271883425999988,4095,4095,4095
4.274577335999993,4095,4095,3648
4.277268786999969,4095,4095,3472
4.2799589470000114,4095,3469,3621
4.2826583570000025,4095,1046,2627
4.285349433000022,4095,4095,4095
4.288038967999967,4095,2479,3177
4.290731043999983,4095,4095,4095
4.293420870999967,4095,1584,2898
4.296111197000016,4095,4095,4095
4.298801439999977,4095,4086,3024
4.3014936419999685,4095,4095,4095
4.304182800999968,4095,4095,3856
4.306875085999991,4095,2176,3049
4.309566496000002,4095,4095,4095
4.3122559060000185,4095,4095,4095
4.31494831599997,4095,4095,4095
4.317639683999971,4095,3777,3383
4.320331051999972,4095,4095,4095
4.323021670000003,4095,734,2677
4.325713662999988,4095,4095,4095
4.328405822999969,4095,3513,3417
4.331097982000017,4095,4095,4095
4.333798850999983,4095,2602,3177
4.33649013500002,4095,4095,3811
4.339182670000014,4095,4095,4095
4.341874412999971,4095,4095,4095
4.344565655999986,4095,4095,4095
4.34725819099998,4095,1833,2883
4.349957726000014,4095,3367,3562
4.352650176999987,4095,1598,2755
4.355345919999991,4095,4095,4095
4.358042580000017,4095,4095,3421
4.360732407,4095,4095,4095
4.363431274999982,4095,2243,3148
4.36612476800002,4095,4095,4095
4.36881551099998,4095,4095,3116
4.37150667100002,4095,4095,4095
4.374197830000014,4095,3637,3401
4.376888365000013,4095,4095,3552
4.379579774999968,4095,4095,4095
4.382272768000007,4095,3696,3253
4.384964678000017,4095,4095,4095
4.387693045999981,4095,1523,2852
4.390387664000002,4095,4095,4095
4.3931061989999876,4095,384,2598
4.3957999419999965,4095,4095,4095
4.398493851000012,4095,4095,3377
4.401186010999993,4095,4095,4095
4.403877670999975,4095,3831,3482
4.406568997000022,4095,2069,2963
4.409260406999977,4095,4095,4095
4.4119521499999905,4095,4095,4095
4.4146453519999795,4095,4095,3706
4.417352053000002,4095,4095,3486
4.420044337999968,4095,4095,4095
4.422735289000002,4095,540,2519
4.425428073999967,4095,4095,4095
4.428119358999993,4095,2749,3216
4.430810644000019,4095,4095,4095
4.4335238869999785,4095,1840,2980
4.436215005000008,4095,4095,4095
4.438908164999987,4095,4095,3032
4.441601283000011,4095,4095,4095
4.444290566999996,4095,4095,3947
4.446982184999968,4095,2211,3161
4.4497230949999675,4095,2859,3164
4.452419797000005,4095,3351,3246
4.455112622999991,4095,4095,4095
4.457803448999982,4095,3779,3394
4.46049294300002,4095,4095,4095
4.4631871859999706,4095,1428,2890
4.46587905399997,4095,4095,4095
4.468570254999975,4095,4095,3577
4.471263497999985,4095,4095,4095
4.473956325000017,4095,2996,3269
4.476648233999981,4095,4095,3662
4.479341394000016,4095,4095,4095
4.482032178999987,4095,4095,4095
4.484720713999991,4095,4095,4095
4.487412873999972,4095,1757,2905
4.490107158000001,4095,4095,4095
4.492800192999994,4095,814,2570
4.4954937690000065,4095,4095,4095
4.498184428999991,4095,4095,3425
4.500875214000018,4095,4095,4095
4.503567289999978,4095,2734,3250
4.506258324999976,4095,3150,3164
4.508947526999975,4095,4095,2755
4.511640435999993,4095,4095,4095
4.514333388000011,4095,4038,3503
4.517052131000014,4095,4095,3557
4.5197484569999915,4095,2670,3174
4.52244278400002,4095,2349,2969
4.525135610000007,4095,4095,4095
4.527826227999981,4095,1670,2958
4.5305170550000184,4095,4095,4095
4.533208297999977,4095,770,2690
4.535904248999998,4095,4095,4095
4.538599408999971,4095,4095,3397
4.541291984999987,4095,4095,4095
4.543982728999993,4095,4095,3623
4.546673138000017,4095,1901,3089
4.549365006000016,4095,4095,4095
4.552063040999997,4095,4095,4095
4.554756951000002,4095,4095,3840
4.557446986000002,4095,4095,3479
4.560135936999984,4095,4095,4095
4.562825929999974,4095,264,2496
4.5655175480000025,4095,4095,4095
4.568208958000014,4095,2997,3254
4.5709024930000055,4095,4095,4095
4.573594028000002,4095,2085,3062
4.576283311999987,4095,4095,4090
4.578975139000022,4095,4095,2866
4.581667674000016,4095,4095,4095
4.5843583330000115,4095,4095,4095
4.5870506599999885,4095,2173,3095
4.589742236000006,4095,2581,3178
4.592433146000019,4095,2907,3211
4.595125514000017,4095,4095,4095
4.597815549000018,4095,3917,3441
4.600506084000017,4095,4095,4095
4.603196952000019,4095,1491,2911
4.605887445000008,4095,4095,4095
4.608578104999992,4095,4095,3654
4.611270138999998,4095,4095,4095
4.613960882000015,4095,2985,3262
4.61665158400001,4095,4095,3648
4.6193452850000085,4095,4095,4095
4.622035653000012,4095,4095,4095
4.624724771999979,4095,4095,4095
4.627416597999968,4095,1634,2871
4.63011071599999,4095,4095,4095
4.632801459000007,4095,761,2568
4.635500868999998,4095,4095,4095
4.638194736999992,4095,4051,3390
4.640885980000007,4095,4095,4095
4.643577557000015,4095,2727,3227
4.6462682580000205,4095,3296,3207
4.648959042999991,4095,4095,2830
4.651686493999989,4095,4095,4095
4.654379112000015,4095,4095,3499
4.657092563999981,4095,4095,3531
4.65978438999997,4095,2480,3190
4.662474132999989,4095,1936,2839
4.665165043000002,4095,4095,4095
4.6678568279999695,4095,1776,2995
4.670549695999966,4095,4095,4095
4.673241189000009,4095,925,2725
4.675931764999973,4095,4095,4095
4.678624007999986,4095,4095,3385
4.681316876999972,4095,4095,4095
4.684007785999995,4095,4095,3621
4.686698612999976,4095,2033,3119
4.689389521999999,4095,4095,4095
4.69207959900001,4095,4095,4095
4.694769425000004,4095,4095,3824
4.697461168000018,4095,3856,3402
4.700151411999968,4095,4095,4095
4.702842863000001,4095,291,2537
4.705533564000007,4095,4095,4095
4.708223641000018,4095,2896,3221
4.71091584200002,4095,4095,4095
4.713607751999973,4095,2166,3110
4.716298870000003,4095,4095,4095
4.718991322000022,4095,4095,3115
4.7216821480000135,4095,4095,4095
4.724371849000022,4095,4095,4095
4.727066967999974,4095,2129,3095
4.729760543999987,4095,2502,3194
4.732450536999977,4095,2544,3153
4.735148488999982,4095,4095,4095
4.737838814999975,4095,3953,3405
4.74052926600001,4095,4095,4095
4.743223759999978,4095,1563,2944
4.745917419000023,4095,4095,4095
4.748608495999974,4095,4095,3664
4.751301489000014,4095,4095,4095
4.753993899000022,4095,3205,3313
4.756682641999987,4095,4095,3629
4.7593723429999955,4095,4095,4095
4.762061169999981,4095,4095,4095
4.764749746000007,4095,4095,4095
4.767439321999973,4095,1712,2877
4.770131356999968,4095,4095,4095
4.772820266999986,4095,577,2518
4.775512843000001,4095,4095,4095
4.778205877999994,4095,4028,3398
4.780896455000004,4095,4095,4095
4.7835890310000195,4095,2884,3262
4.786281024000004,4095,3365,3200
4.7889700590000075,4095,4095,2848
4.791695634999996,4095,4095,4095
4.794388502999993,4095,4095,3569
4.797104121000018,4095,4095,3531
4.7997944059999895,4095,2481,3199
4.802487315999997,4095,1730,2799
4.8051782260000095,4095,4095,4095
4.807869927000013,4095,1834,3006
4.810564170000021,4095,4095,4095
4.813256538000019,4095,1159,2782
4.815949406000016,4095,4095,4095
4.818640982999966,4095,4095,3359
4.8213344339999935,4095,4095,4095
4.8240245939999795,4095,4095,3659
4.826717587000019,4095,2010,3149
4.8294092890000115,4095,4095,4095
4.832107865000012,4095,4095,4095
4.834802524999986,4095,4095,3747
4.837496767999994,4095,3771,3377
4.840187260999983,4095,4095,4095
4.842880254000022,4095,358,2591
4.845573330999969,4095,4095,4095
4.84826336499998,4095,3183,3341
4.8509547329999805,4095,4095,4095
4.853647642999988,4095,2298,3143
4.8563368029999765,4095,4095,3787
4.859027088000005,4095,4095,2815
4.861717080999995,4095,4095,4095
4.864405991000012,4095,4095,4095
4.867095608999989,4095,2293,3057
4.869786142999999,4095,2380,3198
4.872473845000002,4095,2569,3146
4.875162546000013,4095,4095,4095
4.877853955999967,4095,3792,3382
4.880542116000015,4095,4095,4095
4.883233566999991,4095,1699,2965
4.8859250190000125,4095,4095,4095
4.8886154289999695,4095,4095,3597
4.891306255000018,4095,4095,4095
4.893998414999999,4095,3151,3302
4.896688240999993,4095,4095,3878
4.899379693000014,4095,4095,4095
4.9020714359999715,4095,4095,4095
4.904763469999978,4095,4095,4095
4.90745817200002,4095,1766,2880
4.910149040000022,4095,4095,4095
4.912839033000012,4095,466,2501
4.915529610000021,4095,4095,4095
4.918229186000019,4095,4095,3431
4.920918595999979,4095,4095,4095
4.923611171999994,4095,2971,3292
4.9263032069999895,4095,2902,3205
4.928992366999978,4095,4095,2832
4.931718650999983,4095,4095,4095
4.934412393999992,4095,4095,3569
4.937112721000005,4095,4095,3598
4.939804631000015,4095,2449,3218
4.942496957000003,4095,2016,2877
4.945190491999995,4095,4095,4095
4.947880942999973,4095,1959,3039
4.9505743109999685,4095,4095,4095
4.953269346000013,4095,1152,2787
4.955958088999978,4095,4095,4095
4.958647165999992,4095,4060,3353
4.961337533999995,4095,4095,4095
4.964026151999974,4095,4095,3635
4.96671685299998,4095,2028,3122
4.969411720999972,4095,4095,4095
4.972103048000008,4095,4095,4095
4.97479599899998,4095,4095,3408
4.97748790899999,4095,3888,3391
4.980179152000005,4095,4095,4095
4.982869520000008,4095,314,2543
4.985560179999993,4095,4095,4095
4.988249714999995,4095,3263,3341
4.990942415999996,4095,4095,4095
4.993638159,4095,2230,3139
4.996346152000001,4095,4095,3735
4.999042937000013,4095,4095,2800
5.00173451400002,4095,4095,4095
5.004468007000014,4095,4095,4095
5.007185041000014,4095,2119,3067
5.00988053399999,4095,2883,3379
5.012571819000016,4095,1923,2859
5.015264187000014,4095,4095,4095
5.017956638999976,4095,4095,3440
5.020646172999989,4095,4095,4095
5.023337625000011,4095,2064,3127
5.026028451000002,4095,4095,4095
5.028718277999985,4095,4095,3707
5.031410896000011,4095,4095,4095
5.034102638999968,4095,3462,3381
5.036829549000004,4095,4095,3611
5.0395255419999785,4095,4095,4095
5.042220159999999,4095,4081,3297
5.044911403000015,4095,4095,4095
5.047602771000015,4095,1574,2815
5.050293597000007,4095,4095,4095
5.052987174000009,4095,234,2529
5.055749124999977,4095,4095,4095
5.058473284999991,4095,4095,3398
5.061167403000013,4095,4095,4095
5.063857562999999,4095,3698,3466
5.066546971999969,4095,1815,2978
5.06923700699997,4095,4095,4095
5.071926416999986,4095,4095,4095
5.074617784999987,4095,4095,3680
5.077309861999993,4095,4095,3458
5.079999312999973,4095,4095,3790
5.082690931000002,4095,597,2530
5.085383590999982,4095,4095,4095
5.088074833999997,4095,2607,3199
5.090770326999973,4095,4095,4095
5.093461902999991,4095,1745,2954
5.096152855000014,4095,4095,4095
5.098847680999995,4095,4095,3024
5.1015403829999855,4095,4095,4095
5.1042294179999885,4095,4095,3885
5.106920536000018,4095,2158,3154
5.109611486999995,4095,3632,3146
5.112300564000009,4095,3840,3275
5.114992972999971,4095,4095,4095
5.117686215999981,4095,3818,3377
5.120378668000001,4095,4095,4095
5.123078828000018,4095,1040,2783
5.12577257099997,4095,4095,4095
5.128462229999968,4095,3954,3472
5.131153224000002,4095,4095,4095
5.133845425000004,4095,2800,3216
5.136541250999983,4095,4095,3715
5.1392367859999695,4095,4095,4095
5.1419293210000205,4095,4095,4095
5.144619438999996,4095,4095,4095
5.1473112240000205,4095,1750,2921
5.15000329999998,4095,4095,4095
5.1526958349999745,4095,1009,2624
5.155400078000014,4095,4095,4095
5.158093403999999,4095,4095,3435
5.160783563999985,4095,4095,4095
5.163475016000007,4095,2543,3198
5.166165466999985,4095,4095,4095
5.168853877000004,4095,4095,3098
5.171549702999982,4095,4095,4095
5.174243570999977,4095,3851,3462
5.176934314999983,4095,4095,3519
5.179626224000003,4095,3630,3206
5.182317092000005,4095,2943,3204
5.185046294000017,4095,4095,4095
5.18774145399999,4095,1674,2822
5.19043390500002,4095,4095,4095
5.1931255650000026,4095,679,2656
5.195815640999967,4095,4095,4095
5.198509301000001,4095,3987,3347
5.2011997519999795,4095,4095,4095
5.203888828999993,4095,3915,3517
5.206581114000016,4095,1754,2977
5.209273315000019,4095,4095,4095
5.2119637249999755,4095,4095,4095
5.21465492599998,4095,4095,3684
5.2173473779999995,4095,3931,3393
5.220038454000019,4095,4095,4095
5.222728989000018,4095,375,2499
5.225421064999978,4095,4095,4095
5.228113974999985,4095,2725,3223
5.230805093000015,4095,4095,4095
5.233496210999988,4095,1925,3001
5.2361923710000156,4095,4095,4095
5.2389211560000035,4095,4095,3034
5.241614481999989,4095,4095,4095
5.244305974999975,4095,4095,3995
5.2469959680000215,4095,2257,3184
5.249687544999972,4095,2555,3146
5.252386120999972,4095,3045,3214
5.25508148900002,4095,4095,4095
5.257776481999997,4095,3809,3397
5.260466059000009,4095,4095,4095
5.263160969000012,4095,1307,2844
5.2658575030000065,4095,4095,4095
5.268546705000006,4095,3983,3498
5.271237613999972,4095,4095,4095
5.273930649000022,4095,3091,3295
5.276620851000018,4095,4095,3664
5.2793132190000165,4095,4095,4095
5.282004669999992,4095,4095,4095
5.284695622000015,4095,4095,4095
5.287388739999983,4095,1647,2864
5.290080232999969,4095,4095,4095
5.292771350999999,4095,498,2512
5.295462427000018,4095,4095,4095
5.298154378999982,4095,4095,3401
5.300845746999983,4095,4095,4095
5.303536907000023,4095,2815,3236
5.306227524999997,4095,3169,3194
5.3089185179999845,4095,4095,2829
5.311610303000009,4095,4095,4095
5.31430375399998,4095,3653,3393
5.317043288999969,4095,4095,3431
5.319737406999991,4095,2838,3181
5.322431607999988,4095,1901,2842
5.32512326799997,4095,4095,4095
5.3278123439999945,4095,1813,2880
5.330502878999994,4095,4095,4095
5.333192956000005,4095,1206,2797
5.335893907000013,4095,4095,4095
5.338586024999984,4095,3904,3337
5.341278517999967,4095,4095,4095
5.34397001100001,4095,4095,3653
5.346663546000002,4095,1811,3034
5.349355080999999,4095,4095,4095
5.35204457399999,4095,4095,4095
5.35473456699998,4095,4095,3806
5.35742914399998,4095,3852,3387
5.360117844999991,4095,4095,4095
5.362808545999997,4095,272,2550
5.365515330999983,4095,4095,4095
5.368204157999969,4095,3165,3281
5.370894817000021,4095,4095,4095
5.373589726999967,4095,2151,3107
5.3762828449999915,4095,4095,3776
5.378979338000022,4095,4095,2807
5.381670414999974,4095,4095,4095
5.384359366000012,4095,4095,4095
5.387051483999983,4095,2180,3006
5.3897438939999915,4095,2461,3203
5.392433261999997,4095,2602,3130
5.395123421999983,4095,4095,4095
5.397814540000013,4095,4033,3425
5.400503824999987,4095,4095,4095
5.4051108959999965,4095,1690,2969
5.407812430999968,4095,1499,2794
5.4105075079999665,4095,4095,4095
5.413203042000021,4095,989,2737
5.4158941599999935,4095,4095,4095
5.418586778000019,4095,3979,3328
5.421279313000014,4095,4095,4095
5.423970597999983,4095,4095,3722
5.426663173999998,4095,1839,2983
5.429355917999999,4095,4095,4095
5.432050618999995,4095,4095,4095
5.434743695000009,4095,4095,3792
5.437449104999985,4095,3519,3299
5.4401876399999765,4095,4095,4095
5.442883800000004,4095,327,2545
5.445576250999977,4095,4095,4095
5.4482737019999945,4095,4095,3581
5.450967903999981,4095,4095,4095
5.453657980000003,4095,2288,3139
5.456349264999972,4095,4095,3499
5.459048175000021,4095,3824,2597
5.4617389179999805,4095,4095,4095
5.4644270779999715,4095,4095,4095
5.4671166539999945,4095,1671,2925
5.469805855999994,4095,2654,3280
5.472491098999967,4095,2448,3120
5.47518259200001,4095,4095,4095
5.477880209999967,4095,3305,3234
5.480570452999984,4095,4095,4095
5.483262778999972,4095,1841,3007
5.485951980999971,4095,4095,4095
5.488640723999993,4095,4095,3839
5.491331967000008,4095,4095,4095
5.49402287700002,4095,3071,3271
5.4967126199999825,4095,3984,3424
5.49940478000002,4095,4095,4095
5.5020962730000065,4095,4095,4095
5.504790516000014,4095,4095,4095
5.507483591999971,4095,1696,2896
5.5101745439999945,4095,4095,4095
5.512864787000012,4095,447,2503
5.51555523799999,4095,4095,4095
5.518248605999986,4095,3406,3190
5.520938682999997,4095,4095,4095
5.523629467999967,4095,2949,3275
5.526321461000009,4095,4095,3367
5.529037786999993,4095,4095,2878
5.531730405000019,4095,4095,4095
5.534422522999989,4095,4067,3431
5.537124183000003,4095,3613,3319
5.539816508999991,4095,2768,3344
5.542508419000001,4095,1461,2723
5.545199036999975,4095,4095,4095
5.547888738999973,4095,2240,3152
5.550578814999994,4095,4095,4095
5.553270182999995,4095,1227,2807
5.555959175999988,4095,4095,4095
5.5586529189999965,4095,3856,3317
5.561345371000016,4095,4095,4095
5.564033197000015,4095,4095,3600
5.566721606999977,4095,1807,2975
5.569413934000011,4095,4095,4095
5.572103176999974,4095,4095,4095
5.574793419999992,4095,4095,3198
5.577490954999973,4095,3397,3262
5.580179197999996,4095,4095,4095
5.582871107000017,4095,353,2575
5.58556285100002,4095,4095,4095
5.58825171899997,4095,3532,3429
5.590943503000005,4095,4095,4095
5.593634662999989,4095,1895,2988
5.596324781000021,4095,4095,3215
5.599016441000003,4095,3807,2398
5.601710017000016,4095,4095,4095
5.604400260999967,4095,4095,4095
5.607092378999994,4095,1959,2913
5.609781662999978,4095,2929,3330
5.612472406999984,4095,2651,3180
5.615162399999974,4095,4095,2511
5.617852184000014,4095,3079,1878
5.6205405110000015,4095,4095,4095
5.62322887900001,4095,1759,2970
5.625918788999968,4095,4095,4095
5.6286084070000015,4095,4095,3917
5.631299150000018,4095,4095,4095
5.633991476000006,4095,2785,3202
5.636681427999974,4095,3721,2464
5.639375878999999,4095,4095,4095
5.6421011219999855,4095,4095,4095
5.644793489999984,4095,4095,4095
5.6474856500000215,4095,1483,2841
5.650177310000004,4095,4095,4095
5.65286688599997,4095,519,2519
5.655556879000017,4095,4095,2321
5.658246830999985,4095,3999,2097
5.660948240999971,4095,4095,4095
5.6636452340000005,4095,2902,3262
5.6663341020000075,4095,2997,3216
5.669054845000005,4095,4095,2800
5.671748795999974,4095,4095,4095
5.67443949799997,4095,3198,3247
5.67712928200001,4095,4095,3525
5.679817275999994,4095,2896,3343
5.682509019000008,4095,1435,2700
5.685201553000013,4095,4095,4095
5.687890462999974,4095,1886,2864
5.690581705999989,4095,4095,4095
5.693273782999995,4095,1326,2812
5.695965526000009,4095,4095,4095
5.698656561000007,4095,4095,3408
5.701347511999984,4095,4095,4095
5.704037046999986,4095,4095,3611
5.706726247999995,4095,2153,3145
5.7094170330000225,4095,4095,4095
5.712106526000014,4095,4095,4095
5.714797603000022,4095,4095,3174
5.717487303999974,4095,3004,3174
5.720176338999977,4095,4095,4095
5.722864748999996,4095,320,2559
5.725555407999991,4095,4095,4095
5.728246775999992,4095,3730,3491
5.73093860299997,4095,4095,4095
5.733628263000014,4095,1509,2871
5.7363169220000145,4095,4095,4095
5.73901487400002,4095,3485,3277
5.74170807500002,4095,4095,4095
5.74439752699999,4095,4095,4095
5.747088812000015,4095,2071,2971
5.749777471000016,4095,2991,3365
5.752467213999978,4095,2595,3152
5.75515808199998,4095,4095,2598
5.757848367000008,4095,3577,2032
5.760545193999974,4095,4095,4095
5.763240853000013,4095,2167,3153
5.765928722000012,4095,4095,4095
5.768616630999986,4095,4095,3612
5.771304208000004,4095,4095,4095
5.773993243000007,4095,3233,3302
5.776682735999998,4095,4087,3439
5.77937685400002,4095,4095,4095
5.782067971999993,4095,4095,4095
5.785541670999976,4095,4095,4095
5.788240788999985,4095,1650,2934
5.790933574000007,4095,4095,4095
5.793626609,4095,1399,2837
5.796318559999975,4095,4095,3871
5.799009553000019,4095,4095,2960
5.801698837999993,4095,4095,4095
5.804387290000022,4095,4095,3853
5.8070775740000045,4095,2256,3133
5.8097677339999905,4095,3216,3419
5.812457435999988,4095,2122,2830
5.815150094999979,4095,4095,4095
5.817841337999994,4095,3280,3242
5.820531997999979,4095,4095,4095
5.8232219909999685,4095,1472,2887
5.825914026000021,4095,4095,4095
5.828605852999999,4095,4095,3574
5.831296178999992,4095,4095,4095
5.8339865890000056,4095,2859,3202
5.83667587399998,4095,4095,2546
5.839375867000001,4095,4095,4095
5.8421104010000136,4095,4095,4095
5.844801060999998,4095,4095,4095
5.84749384600002,4095,1552,2864
5.850185046999968,4095,4095,4095
5.852873456999987,4095,779,2586
5.855566366999994,4095,4095,4095
5.858258485000022,4095,4095,3449
5.860953644999995,4095,4095,4095
5.863676638000015,4095,2947,3270
5.8663663809999775,4095,2862,3205
5.869078832000014,4095,4095,4095
5.8717693250000025,4095,4095,4095
5.874458317999995,4095,4017,3440
5.87714843599997,4095,4095,3525
5.879836179999984,4095,3679,3730
5.882526756000004,4095,1676,2773
5.885218457000008,4095,4095,4095
5.8879090340000175,4095,1719,2933
5.890601943999968,4095,4095,4095
5.893292270000018,4095,2422,3170
5.8959813469999744,4095,4095,4095
5.898671172999968,4095,1931,2797
5.901362624000001,4095,4095,4095
5.90404990899998,4095,4095,4095
5.9067407360000175,4095,2332,3186
5.909430729000007,4095,4095,4095
5.912119638999968,4095,4095,4095
5.914811465000014,4095,4095,3897
5.917503291000003,4095,2557,3056
5.9201935340000205,4095,4095,4095
5.922886485999982,4095,331,2576
5.92557889599999,4095,4095,4095
5.928268596999999,4095,4095,3590
5.93095808999999,4095,4095,4095
5.933650042000011,4095,2018,3036
5.936343285000021,4095,4095,3504
5.939041944999985,4095,3408,2555
5.9417361459999825,4095,4095,4095
5.9444263059999685,4095,4095,4095
5.947118214999989,4095,2024,2896
5.949810624999998,4095,2975,3306
5.952501951999977,4095,2655,3206
5.955194945000017,4095,4095,2591
5.957884020999984,4095,4095,2304
5.960573097999998,4095,4095,4095
5.963268216000017,4095,1769,2979
5.965961584000013,4095,4095,4095
5.968649159999984,4095,3698,3285
5.971344569999985,4095,4095,4095
5.9740338130000055,4095,3854,3408
5.976721681000015,4095,3485,3317
5.979410632999986,4095,4095,4095
5.982103166999991,4095,4095,4095
5.984794619000013,4095,4095,4095
5.987486569999987,4095,1635,2875
5.990179271999978,4095,4095,4095
5.992868223000016,4095,285,2532
5.995567924999989,4095,4095,2178
5.998263792999978,4095,4095,1974
6.000954911000008,4095,4095,4095
6.003682071000014,4095,3775,3527
6.006432771999982,4095,2394,3168
6.009154222999996,4095,3804,2531
6.0118464249999874,4095,4095,4095
6.014539125999988,4095,4095,4095
6.017231826999989,4095,3920,3444
6.019924986999968,4095,4095,4095
6.022617104999995,4095,387,2576
6.025308515000006,4095,4095,4095
6.027998550000007,4095,1997,3041
6.030689418000009,4095,4095,4095
6.033379786000012,4095,3358,3371
6.036067986999967,4095,4095,4095
6.038764564000019,4095,4095,3435
6.0414588069999695,4095,4095,4095
6.044180132999998,4095,3877,3602
6.046875209999996,4095,2018,3120
6.0495670779999955,4095,3699,3899
6.052256195999973,4095,3267,3238
6.054949938999982,4095,4095,2663
6.057641391000004,4095,2971,3143
6.060331592000011,4095,4095,4095
6.063036917999966,4095,225,2490
6.065748452999969,4095,4095,4095
6.068445030000021,4095,4095,4095
6.071135814000002,4095,4095,4095
6.073825349000003,4095,2109,3019
6.07651475900002,4095,4095,3904
6.079205376999994,4095,4095,4095
6.081898953000007,4095,4095,4095
6.084591070999977,4095,4095,4095
6.087284398000008,4095,1984,3019
6.089974973999972,4095,4095,4095
6.092663008999978,4095,947,2612
6.095353669000019,4095,4095,2319
6.098044662000007,4095,1146,1417
6.10073582199999,4095,4095,4095
6.103427647999979,4095,4051,3600
6.106119224999986,4095,4095,4095
6.108807843000022,4095,4095,3248
6.111501544000021,4095,4095,4095
6.114195995999978,4095,2879,3215
6.116889571999991,4095,4095,4095
6.11958064800001,4095,4095,4095
6.122275141999978,4095,2997,3216
6.1249655510000025,4095,4095,4095
6.127696044000004,4095,1920,2880
6.130388621000009,4095,4095,4095
6.1331019049999895,4095,333,2499
6.1357929399999875,4095,4095,4095
6.138492933000009,4095,3993,3393
6.14119175999997,4095,4095,4095
6.143884127999968,4095,4095,4095
6.146577788000002,4095,2559,3041
6.149270364000017,4095,4095,4095
6.151960981999991,4095,4095,4095
6.15465418399998,4095,4095,3823
6.157345217999989,4095,2066,2941
6.160035752999988,4095,4095,4095
6.162726829999997,4095,646,2551
6.165422281000019,4095,4095,4095
6.168113149000021,4095,3856,3451
6.170802724999987,4095,4095,4095
6.173491135000006,4095,1559,2865
6.17618041999998,4095,4095,3504
6.178871329999993,4095,3919,2618
6.181563030999996,4095,4095,4095
6.184255108000002,4095,4095,4095
6.186946725999974,4095,2085,3022
6.189638426999977,4095,2959,3248
6.192332169999986,4095,4095,4095
6.19502449700002,4095,4095,3318
6.197716490000005,4095,4095,4095
6.200405607999983,4095,4095,4095
6.203096767999966,4095,863,2711
6.205790010999976,4095,4095,4095
6.208484128999999,4095,4095,4095
6.211176621999982,4095,4095,4095
6.213868614999967,4095,3595,3435
6.216558608000014,4095,3383,2863
6.2192490599999815,4095,4095,4095
6.221939636000002,4095,4095,4095
6.224630087999969,4095,4095,3146
6.227321539000002,4095,2139,2997
6.230011698999988,4095,4095,4095
6.232701191999979,4095,425,2513
6.2353937679999945,4095,4095,4095
6.238084635999996,4095,2944,3139
6.240785545999984,4095,4095,4095
6.243478080999978,4095,2575,3220
6.24621128199999,4095,3152,3186
6.248904109000023,4095,4095,4095
6.2515990599999895,4095,4095,4095
6.254290886999968,4095,3379,3280
6.256981713000016,4095,3158,2334
6.25971274799997,4095,3474,3206
6.262409365999986,4095,2974,3216
6.26516060900002,4095,4095,4095
6.26791485199999,4095,2788,3199
6.270626761000017,4095,4095,4095
6.273319587999993,4095,559,2608
6.276009538999972,4095,4095,4095
6.278698573999975,4095,4095,3979
6.281394858999988,4095,4095,4095
6.284087184999976,4095,4095,3914
6.286779887000023,4095,3125,3306
6.289470129999984,4095,4095,4095
6.292159913999967,4095,4095,4095
6.294850698999994,4095,4095,4095
6.297542525999972,4095,3526,3351
6.300231726999982,4095,4095,4095
6.302922261999981,4095,4095,3687
6.305614837999997,4095,4095,4095
6.308307205999995,4095,4079,3451
6.310999491000018,4095,4095,4095
6.3136904429999845,4095,2057,3045
6.316379935999976,4095,4095,4095
6.319070594999971,4095,4095,3933
6.321762422000006,4095,4095,4095
6.324451331999967,4095,4095,4095
6.327143325000009,4095,1862,2979
6.329837901000019,4095,4095,4095
6.332527436000021,4095,2007,2863
6.335218553999994,4095,4095,4095
6.3379120060000105,4095,3109,3202
6.340619124,4095,4095,4095
6.343315742000016,4095,2413,3181
6.3460066929999925,4095,4095,4095
6.348697394999988,4095,4095,3525
6.3513878879999766,4095,4095,4095
6.354079421999984,4095,3246,3311
6.356769665999991,4095,2947,3202
6.359462866999991,4095,4095,4095
6.362153734999993,4095,2368,2908
6.3648466029999895,4095,4095,4095
6.367541430000017,4095,1941,3024
6.370231880999995,4095,4095,4095
6.372919624000019,4095,359,2606
6.375607617000014,4095,4095,4095
6.37829719399997,4095,3121,3202
6.380985227999986,4095,4095,4095
6.383716595999999,4095,4095,3633
6.386410381000019,4095,2365,3219
6.389104165999981,4095,4095,4095
6.391793784000015,4095,4095,4095
6.394485277000001,4095,4095,4095
6.397176936999983,4095,3711,3376
6.399868513000001,4095,4095,4095
6.402561547999994,4095,1075,2608
6.405253415999994,4095,4095,4095
6.407943075999981,4095,3164,3394
6.410633068999971,4095,4095,4095
6.413324353999997,4095,917,2713
6.416013179999993,4095,4095,4095
6.4187092149999785,4095,4095,4095
6.421402208000018,4095,4095,4095
6.424092076000022,4095,3919,3487
6.426783318999981,4095,1926,3022
6.4294750619999945,4095,4095,4095
6.432165847000022,4095,4095,4095
6.4348580070000025,4095,4095,3490
6.4375487080000084,4095,4095,4095
6.440246493000018,4095,4095,4095
6.442950694999979,4095,293,2522
6.445642270999997,4095,4095,4095
6.448332181000012,4095,4095,4095
6.451023382000017,4095,4095,4095
6.453712875000008,4095,3269,3397
6.456404743000007,4095,4095,3729
6.459096320000015,4095,4095,2928
6.461788770999988,4095,4095,4095
6.464481138999986,4095,4095,4095
6.467179215999977,4095,2165,3184
6.469873791999987,4095,4095,4095
6.472563159999993,4095,321,2553
6.475253819999978,4095,4095,4095
6.477949022000018,4095,3709,3312
6.480638306000003,4095,4095,4095
6.4833285909999745,4095,1546,2891
6.486019376000002,4095,4095,4095
6.4887093689999915,4095,4095,4095
6.4914019870000175,4095,4095,4095
6.494092647000002,4095,3231,3317
6.496782182000004,4095,4095,3495
6.4994763409999905,4095,4095,4095
6.502173208999977,4095,4095,4095
6.504865452999979,4095,4095,4095
6.507557028999997,4095,2689,3283
6.5102478139999675,4095,4095,4095
6.5129373899999905,4095,305,2512
6.515629466999997,4095,4095,2323
6.5183214599999815,4095,4095,3475
6.521041535999984,4095,4095,4095
6.523734321000006,4095,3283,3365
6.526426564000019,4095,2154,3152
6.529120099000011,4095,4095,4095
6.531811008999966,4095,4095,4095
6.534502584999984,4095,4095,3646
6.537193910999974,4095,3619,3311
6.539883863,4095,4095,4095
6.542583105999995,4095,1072,2629
6.545275182000012,4095,4095,4095
6.5479642589999685,4095,2449,3148
6.5506570439999905,4095,4095,4095
6.553348995000022,4095,1353,2852
6.556038529999967,4095,4095,3523
6.558729523000011,4095,3491,2559
6.561421015999997,4095,4095,4095
6.56411346699997,4095,3712,3430
6.566805960000011,4095,2197,3094
6.569518704000018,4095,3002,2229
6.572208737999972,4095,4095,4095
6.574905355999988,4095,4095,4095
6.577609640999981,4095,2695,3190
6.580305050999982,4095,4095,4095
6.582995418999985,4095,1571,2902
6.585684619999995,4095,4095,4095
6.588372655000001,4095,2917,3216
6.5910655229999975,4095,4095,4095
6.593753474999971,4095,3051,3291
6.596442635000017,4095,4095,3686
6.599134585999991,4095,4095,4095
6.6018255789999785,4095,4095,4095
6.604517739000016,4095,4095,4095
6.607208814999979,4095,2178,3056
6.609900975000016,4095,4095,4095
6.612591884999972,4095,933,2583
6.615281960999994,4095,4095,4095
6.617972662999989,4095,4095,3642
6.620662321999987,4095,4095,4095
6.62335348199997,4095,1736,2982
6.6260455589999765,4095,4095,4095
6.628737677000004,4095,4095,4095
6.631429836999985,4095,4095,4095
6.634121162999975,4095,3239,3328
6.63681107299999,4095,4095,3553
6.639501191000022,4095,4095,4095
6.642206767000005,4095,4095,4095
6.644896844000016,4095,4095,4095
6.647590961999981,4095,2227,3195
6.650282454999967,4095,4095,4095
6.652971864999984,4095,621,2545
6.655701857999986,4095,4095,4095
6.658398184000021,4095,4095,3938
6.6611138019999885,4095,4095,4095
6.663804503999984,4095,3955,3490
6.666496704999986,4095,2374,3123
6.669190905999983,4095,4095,4095
6.671882900000014,4095,4095,4095
6.674573308999982,4095,4095,3539
6.677262094000014,4095,3260,2404
6.679950254000005,4095,4095,4095
6.6826397049999855,4095,699,2545
6.685332697999968,4095,4095,4095
6.688025149999987,4095,2694,3221
6.690717226000004,4095,4095,4095
6.693409177999968,4095,2067,3023
6.69609871199998,4095,4067,3392
6.69878987200002,4095,4095,2761
6.70147932399999,4095,4095,4095
6.704167816999984,4095,4095,3783
6.706857851999985,4095,3194,3322
6.709548595000001,4095,3663,3874
6.712236754000003,4095,2528,3090
6.714928747999977,4095,4095,4095
6.71761907399997,4095,3837,3387
6.720308649999993,4095,4095,4095
6.722998935000021,4095,714,2657
6.7256913869999835,4095,4095,4095
6.728380838000021,4095,4095,3623
6.731070955999996,4095,4095,4095
6.733762073999969,4095,2502,3152
6.736451401000011,4095,4095,3481
6.739140143999975,4095,4095,4095
6.741839470000002,4095,4095,4095
6.744529962999991,4095,4095,4095
6.747220664999986,4095,1903,2978
6.749914574999991,4095,4095,4095
6.752605775999996,4095,1934,2853
6.755296561000023,4095,4095,4095
6.757989803999976,4095,4095,3440
6.760680171999979,4095,4095,4095
6.763371164999967,4095,1853,2992
6.766061782999998,4095,4095,4095
6.768752067999969,4095,4095,4095
6.77145468599997,4095,4095,4095
6.774157511999988,4095,3961,3485
6.776845504999983,4095,3340,2470
6.779535999000018,4095,3276,3221
6.78222840799998,4095,2760,3197
6.784916026000019,4095,4095,4095
6.787607561000016,4095,2047,2979
6.790300178999985,4095,4095,4095
6.792990922000001,4095,548,2521
6.795715623999968,4095,4095,4095
6.798408824999967,4095,2994,3095
6.8011024019999695,4095,4095,4095
6.803792895000015,4095,4095,4095
6.806484012999988,4095,2224,3185
6.809175172999971,4095,4095,4095
6.811864082,4095,4095,4095
6.814556825000011,4095,4095,3481
6.817248818999985,4095,4095,3491
6.8199423119999665,4095,4095,4095
6.822635720999983,4095,591,2537
6.825326340000004,4095,4095,4095
6.828015415999971,4095,3956,3571
6.830706783999972,4095,4095,4095
6.833397651999974,4095,1843,3039
6.836088270000005,4095,4095,4095
6.838778972,4095,3422,2886
6.841468756999973,4095,4095,4095
6.844167958000014,4095,4095,4095
6.846860368000023,4095,1983,3115
6.849553110999977,4095,3664,3248
6.852244396000003,4095,4095,3338
6.854936054999996,4095,4095,3307
6.857627547999982,4095,4095,3472
6.860317416999976,4095,4095,4095
6.863007284999981,4095,1168,2807
6.865697069000021,4095,4095,4095
6.8683859789999815,4095,4080,3513
6.871081555999979,4095,4095,4095
6.873775174000002,4095,1825,2960
6.876462500000002,4095,4095,4095
6.879161409999995,4095,4095,4095
6.881857610999987,4095,4095,4095
6.884547896000015,4095,4095,4095
6.887238305999972,4095,2129,3001
6.889930923999998,4095,4095,4095
6.892619292000006,4095,563,2526
6.895310494,4095,4095,4095
6.897999611999978,4095,4095,3647
6.900688188000004,4095,4095,4095
6.903379138999981,4095,2427,3191
6.90606971599999,4095,4095,4095
6.908759126000007,4095,4095,3135
6.911450743999978,4095,4095,4095
6.914153736999992,4095,4095,3553
6.9168469800000025,4095,4095,3502
6.9195382649999715,4095,3825,3206
6.922230258000013,4095,2720,3184
6.924920293000014,4095,4095,4095
6.927611535999972,4095,1859,3019
6.930302444999995,4095,4095,4095
6.932992229999968,4095,304,2512
6.935718307000002,4095,4095,4095
6.938417299999969,4095,4095,3504
6.941109500999971,4095,4095,4095
6.943809660999989,4095,4095,3947
6.946503237000002,4095,2281,3164
6.949195189000022,4095,4095,4095
6.9518840569999725,4095,4095,4095
6.954575757999976,4095,4095,4095
6.957266625999978,4095,4095,3483
6.959955953000019,4095,4095,4095
6.962646279000012,4095,1072,2623
6.965337730999977,4095,4095,4095
6.968029015000013,4095,3018,3298
6.970719341999995,4095,4095,4095
6.97341725199999,4095,2097,3068
6.976106328000014,4095,4095,3500
6.978794945999994,4095,4095,2788
6.981483647999994,4095,4095,4095
6.984171265999976,4095,4095,4095
6.986860426000021,4095,2105,3137
6.989551459999973,4095,2862,2294
6.992241078000006,4095,3044,3213
6.994930613000008,4095,4095,4095
6.997631189999993,4095,3694,3425
7.000323933000004,4095,4095,4095
7.003014383999982,4095,832,2723
7.005705669000008,4095,4095,4095
7.0084494120000045,4095,4095,3773
7.011171654999998,4095,4095,4095
7.013864065000007,4095,2714,3195
7.016556766000008,4095,4095,3523
7.019250176000014,4095,4095,4095
7.021942835999994,4095,4095,4095
7.024632619999977,4095,4095,4095
7.027323738000007,4095,2032,2896
7.030014482000013,4095,4095,4095
7.032705057999976,4095,480,2518
7.03539600900001,4095,4095,2315
7.0380893359999845,4095,3632,3246
7.040780079000001,4095,4095,4095
7.043480239000019,4095,4095,4095
7.046183272999997,4095,3358,3221
7.048882349999985,4095,3375,2512
7.0515775100000155,4095,4095,4095
7.054272335999997,4095,3699,3429
7.056962870999996,4095,4095,4095
7.05969561400002,4095,3180,3335
7.062391024000021,4095,2165,2912
7.065105932999984,4095,4095,4095
7.067796925999971,4095,1936,2992
7.070489586000008,4095,4095,4095
7.073220246000005,4095,755,2655
7.075941280999984,4095,4095,2169
7.07863998199997,4095,4095,4095
7.081331182999975,4095,4095,4095
7.084020092999992,4095,4095,3907
7.086710836000009,4095,2045,3136
7.089404079000019,4095,4095,4095
7.092093988999977,4095,4095,4095
7.094783856999982,4095,4095,4095
7.097475684000017,4095,3182,3281
7.100166759999979,4095,4095,4095
7.102858420000018,4095,498,2639
7.105550162999975,4095,4095,4095
7.108243238999989,4095,3729,3458
7.110937940999975,4095,4095,4095
7.113630434000015,4095,2669,3201
7.116319634999968,4095,4095,4018
7.119013377999977,4095,4095,4095
7.12170891300002,4095,4095,4095
7.124398530999997,4095,4095,4095
7.127089690999981,4095,2193,2975
7.129784184000016,4095,4095,4095
7.132475468999985,4095,1792,2809
7.135169169999983,4095,4095,4095
7.1378604129999985,4095,4095,3421
7.140553032000014,4095,4095,4095
7.143251108000015,4095,1595,2895
7.145943183999975,4095,4095,4095
7.148633218999976,4095,4095,4095
7.151325337000003,4095,4095,4095
7.154019622000021,4095,3222,3290
7.156711031999976,4095,4095,3831
7.15940356699997,4095,4095,4043
7.162094975999992,4095,2215,2865
7.164784010999995,4095,4095,4095
7.167475128999968,4095,1941,2960
7.170168038999975,4095,4095,4095
7.172859657000004,4095,873,2688
7.175556733999997,4095,4095,2361
7.178247143000021,4095,3633,3269
7.1809363450000205,4095,4095,4095
7.1836256299999945,4095,3424,3395
7.186321748000012,4095,2837,3221
7.189046490999999,4095,4095,4095
7.191739900000016,4095,4095,4095
7.194431768000015,4095,3882,3427
7.197123594999994,4095,3893,3397
7.199815295999997,4095,4095,4095
7.202507373000003,4095,1004,2608
7.205201574,4095,4095,4095
7.207890566999993,4095,2669,3243
7.2105811440000025,4095,4095,4095
7.213270512000008,4095,2622,3216
7.215961129999982,4095,4095,4095
7.218653164999978,4095,4095,2985
7.22134407499999,4095,4095,4095
7.224033609000003,4095,3376,3378
7.22672651900001,4095,2347,3193
7.229419594999968,4095,3872,3248
7.232111922000001,4095,4095,4095
7.234805747999985,4095,4095,4095
7.237497657999995,4095,3535,3326
7.240187859999992,4095,4095,4095
7.242890019000015,4095,1374,2863
7.245584054000005,4095,4095,4095
7.248275338999974,4095,4095,3609
7.250967499000012,4095,4095,4095
7.2536581580000075,4095,1743,2911
7.2563484849999895,4095,4095,3787
7.259038895000003,4095,4095,4095
7.26172851299998,4095,4095,4095
7.264418422000006,4095,4095,4095
7.2671114159999775,4095,1954,3058
7.269804367000006,4095,4095,4095
7.272494402000007,4095,2219,2977
7.275190103,4095,4095,2581
7.277882262999981,4095,4095,3681
7.28057121400002,4095,4095,4095
7.28326008199997,4095,2142,3136
7.285948325999982,4095,4095,4095
7.288636276999966,4095,4095,3836
7.291327477999971,4095,4095,4095
7.29401855499998,4095,4095,3493
7.296709755999984,4095,4095,3546
7.299402165999993,4095,4095,4095
7.302092409000011,4095,4095,4095
7.304782693999982,4095,4095,4095
7.307474436999996,4095,1847,2903
7.310165680000011,4095,4095,4095
7.312855506999995,4095,327,2512
7.315546583000014,4095,4095,4095
7.318238700999984,4095,3899,3343
7.320929027999966,4095,4095,4095
7.323621811999999,4095,3173,3301
7.326315471999976,4095,2501,3210
7.3290067990000125,4095,4095,4095
7.331735332999983,4095,4095,4095
7.334427825999967,4095,4095,3630
7.33712006899998,4095,3240,2469
7.339808728999969,4095,4095,4095
7.342499763999967,4095,1209,2672
7.345197256999995,4095,4095,4095
7.347887334000006,4095,2867,3285
7.350579326999991,4095,4095,4095
7.353272027999992,4095,1222,2769
7.355963271000007,4095,4095,3753
7.358654348000016,4095,4095,2826
7.361347340999998,4095,4095,4095
7.3640377090000015,4095,4095,4095
7.366731909999999,4095,2287,3062
7.369425487000001,4095,4095,4095
7.37211543799998,4095,4095,4095
7.374811805999968,4095,4095,4095
7.37750725799998,4095,3934,3453
7.380197291999991,4095,4095,4095
7.382886159999998,4095,592,2652
7.38557969499999,4095,4095,4095
7.388268229999994,4095,4095,4095
7.390958889999979,4095,4095,4095
7.393653841000003,4095,2078,3041
7.396347084000013,4095,4095,3824
7.399038701999984,4095,4095,4095
7.401729196000019,4095,4095,4095
7.404418563999968,4095,4095,4095
7.407109639999987,4095,2546,3153
7.409800758000017,4095,4095,4095
7.412490334999973,4095,2236,2993
7.41518186899998,4095,4095,4095
7.417871987000012,4095,4095,3890
7.420562271999984,4095,4095,4095
7.4232538069999805,4095,2544,3200
7.4259474670000145,4095,4095,4095
7.428639376999968,4095,4095,4095
7.431333160999998,4095,4095,4095
7.434030821000022,4095,3113,3280
7.436720688999969,4095,4095,3488
7.439411723999967,4095,4095,4095
7.442103259000021,4095,3154,3216
7.4448022099999775,4095,4095,4095
7.447496452999985,4095,1858,2965
7.450188487999981,4095,4095,4095
7.452878188999989,4095,377,2491
7.455570890999979,4095,4095,4095
7.458263133999992,4095,4095,3505
7.4609557100000075,4095,4095,4095
7.46368111999999,4095,4095,3657
7.466375029999995,4095,2753,3206
7.46909010600001,4095,4095,4095
7.471781932999988,4095,4095,4095
7.474474176000001,4095,4095,3431
7.477170252000008,4095,4051,2473
7.47985982900002,4095,4095,4095
7.482548904999987,4095,649,2534
7.485236981000014,4095,4095,4095
7.48792659999998,4095,2932,3237
7.490616884000019,4095,4095,4095
7.4933055860000195,4095,1639,2929
7.495993746000011,4095,4095,4095
7.49868428000002,4095,4095,3413
7.501376397999991,4095,4095,4095
7.504067224999972,4095,4095,3705
7.506757385000014,4095,1978,3039
7.509448253000016,4095,4095,4025
7.512137788000018,4095,4095,4095
7.514829030999977,4095,4095,3085
7.517521524000017,4095,3811,3392
7.520209266999984,4095,4095,4095
7.522902052000006,4095,720,2711
7.525597502999972,4095,4095,4095
7.528288954000004,4095,4095,3698
7.530979780999985,4095,4095,4095
7.533669773999975,4095,2555,3184
7.53635893400002,4095,4095,4095
7.539049134999971,4095,4095,4095
7.541739753000002,4095,4095,4095
7.5444409549999705,4095,4095,4095
7.54713528100001,4095,1773,2881
7.549827232999974,4095,4095,4095
7.552518100999976,4095,1331,2688
7.555209759999968,4095,4095,4095
7.557901336999976,4095,3412,3287
7.560590288000014,4095,4095,4095
7.563281281000002,4095,2140,3126
7.565974025000003,4095,4095,4095
7.568664475999981,4095,4095,4007
7.57135634399998,4095,4095,4095
7.57404617100002,4095,3239,3295
7.576739204999967,4095,4095,3945
7.579450072999975,4095,4095,4095
7.582138733000022,4095,4095,3329
7.584829475999982,4095,4095,4095
7.587520177999977,4095,1891,2926
7.5902094620000184,4095,4095,4095
7.592898664000018,4095,448,2523
7.595590157000004,4095,4095,4095
7.598282482999991,4095,4095,3781
7.600972809999973,4095,4095,4095
7.603693385999975,4095,3345,3376
7.606386128999986,4095,2133,3145
7.609099496999988,4095,4095,4095
7.6117904490000114,4095,4095,4095
7.614483233999977,4095,4095,3671
7.617173892999972,4095,4095,3494
7.619864260999975,4095,4095,4095
7.622556504999977,4095,573,2539
7.625246330999971,4095,4095,4095
7.627935240999989,4095,2995,3305
7.630626150000012,4095,4095,4095
7.633316809999997,4095,1682,2929
7.6360052200000155,4095,4095,4095
7.638694795999982,4095,4095,3605
7.641385330999981,4095,4095,4095
7.644076532999975,4095,4095,3829
7.646775150999986,4095,2251,3182
7.649469685999975,4095,3717,3281
7.652161928999988,4095,4095,4095
7.654853629999991,4095,4095,3183
7.658281704999979,4095,4095,3679
7.660979405999967,4095,4095,4095
7.663707231999979,4095,2992,3163
7.666400474999989,4095,2697,3207
7.669094218999987,4095,4095,4095
7.6717883370000095,4095,4095,4095
7.674484287999974,4095,4095,3777
7.677186905999974,4095,3635,3326
7.6798898160000135,4095,4095,4095
7.682580933999986,4095,337,2512
7.685271177000004,4095,4095,4095
7.68795941999997,4095,3220,3393
7.690647913000021,4095,4095,4095
7.693337364999991,4095,1527,2864
7.696026232999998,4095,4095,3775
7.698716809000018,4095,4095,2849
7.701408093999987,4095,4095,4095
7.704099670000005,4095,4095,4095
7.706790205000004,4095,2271,3206
7.709482531999981,4095,2955,3213
7.712174441000002,4095,4095,4095
7.714866475999997,4095,4095,3136
7.717558302999976,4095,4095,3703
7.7202465459999985,4095,4095,4095
7.7229358309999725,4095,1584,2960
7.725626739999996,4095,4095,4095
7.728315524999971,4095,3904,3456
7.731006434999983,4095,4095,4095
7.733697886000016,4095,3417,3376
7.7363875039999925,4095,4095,3725
7.739078705999987,4095,4095,4095
7.7417685319999805,4095,4095,4095
7.744470734000004,4095,4095,4095
7.747168392999981,4095,1969,3038
7.749861887000009,4095,4095,4095
7.7525519629999735,4095,899,2590
7.7552434560000165,4095,4095,4095
7.757934532999968,4095,4095,3509
7.7606218589999685,4095,4095,4095
7.763313643999993,4095,2223,3151
7.766003427999976,4095,4095,4095
7.768692296999973,4095,4095,3440
7.77138362300002,4095,4095,4095
7.774074907999989,4095,3741,3406
7.776765900999976,4095,4095,3662
7.779462476999981,4095,3095,3216
7.782157261999998,4095,3583,3250
7.7848451720000185,4095,4095,4095
7.787550081999996,4095,2110,3162
7.790239407999991,4095,4095,4095
7.792926776000002,4095,333,2571
7.795618019000017,4095,4095,4095
7.798311345999991,4095,3522,3248
7.8010004220000155,4095,4095,4095
7.80372670700001,4095,3376,3376
7.806418699999995,4095,3290,3294
7.809111818000019,4095,4095,4095
7.811801518999971,4095,4095,4095
7.814492303999998,4095,4095,3812
7.817183547000013,4095,3745,3385
7.819872498999985,4095,4095,4095
7.822564366999984,4095,257,2523
7.825255318000018,4095,4095,4095
7.8279438110000115,4095,3200,3297
7.830633929999976,4095,4095,4095
7.833324672999993,4095,1811,2947
7.836013290999972,4095,4095,3757
7.838703449999969,4095,4095,4095
7.841396110000005,4095,4095,4095
7.844086561999973,4095,4095,3504
7.8467903459999775,4095,2382,3106
7.849482631000001,4095,3273,3175
7.852170833000002,4095,4095,3305
7.854861201000006,4095,4095,4095
7.857551985999976,4095,4061,3499
7.8602410199999895,4095,4095,4095
7.862930012999982,4095,879,2714
7.86561971499998,4095,4095,4095
7.8683086660000185,4095,4095,4095
7.87099895099999,4095,4095,4095
7.873689610999975,4095,2638,3182
7.876379936999967,4095,4095,3671
7.879075054999987,4095,4095,4095
7.8817679649999945,4095,4095,4095
7.8844550829999775,4095,4095,4095
7.887143617999982,4095,2139,3024
7.889832110999976,4095,4095,4095
7.89251989600001,4095,990,2609
7.8952104310000095,4095,4095,4095
7.897901132000015,4095,4095,3415
7.900590708999971,4095,4095,4095
7.903282660000002,4095,2051,3041
7.905975444999967,4095,4095,4095
7.908665145999976,4095,4095,4095
7.911355806000017,4095,4095,4095
7.914045966000003,4095,3548,3406
7.916735791999997,4095,4095,3741
7.919427118999977,4095,4095,4095
7.922117444999969,4095,3367,3223
7.924804896000012,4095,4095,4095
7.927496640000015,4095,1691,2937
7.930188174000023,4095,4095,4095
7.932876916999987,4095,373,2571
7.935569660999988,4095,4095,4095
7.938260904000003,4095,4057,3405
7.94094973,4095,4095,4095
7.943639807000011,4095,3601,3440
7.946334508000007,4095,2448,3207
7.949051751000013,4095,4095,4095
7.951744119000011,4095,4095,4095
7.954437654000003,4095,4095,3701
7.957128146999992,4095,4093,3441
7.959817014999999,4095,4095,4095
7.9625076749999835,4095,1153,2638
7.965198418,4095,4095,4095
7.967889661000015,4095,2672,3205
7.970581570999968,4095,4095,4095
7.973271355999998,4095,1486,2835
7.9759595149999996,4095,4095,3893
7.978651841999977,4095,4095,2960
7.981363876999978,4095,4095,4095
7.9840516200000025,4095,4095,4095
7.986739654000019,4095,2099,3113
7.9894286480000005,4095,3446,3249
7.9921177659999785,4095,4095,4095
7.99480705000002,4095,4095,4095
7.997502292999968,4095,3651,3359
8.000191536999978,4095,4095,4095
8.002883070999985,4095,960,2747
8.005573105999986,4095,4095,4095
8.008262473999991,4095,4095,3583
8.011005925999996,4095,4095,4095
8.013725126999987,4095,2443,3156
8.016416119999974,4095,3439,3321
8.019108113000016,4095,4095,4095
8.021799439999995,4095,4095,4095
8.024488308000002,4095,4095,4095
8.027179009000008,4095,2010,2938
8.029868918999966,4095,4095,4095
8.032560245000013,4095,1046,2627
8.03525178000001,4095,4095,2368
8.037942481000016,4095,4095,3426
8.040633265999986,4095,4095,4095
8.043324925999968,4095,2631,3216
8.04602033599997,4095,4095,4095
8.048712453999997,4095,4095,3056
8.051405697000007,4095,4095,4095
8.054099607000012,4095,4095,3506
8.056790682999974,4095,4095,3570
8.05948271799997,4095,3315,3220
8.062176378000004,4095,2858,3199
8.064868079000007,4095,4095,4095
8.067559822000021,4095,1953,3109
8.07024977399999,4095,4095,4095
8.07293972499997,4095,569,2624
8.07563113499998,4095,4095,4095
8.078320211000005,4095,3959,3354
8.081069829,4095,4095,4095
8.083792071999994,4095,3103,3247
8.086490357000002,4095,2686,3219
8.089181600000018,4095,4095,4095
8.091870551999989,4095,4095,4095
8.09456117000002,4095,4095,3732
8.09725437100002,4095,4095,3440
8.101478068999995,4095,4095,4095
8.104175311999995,4095,4095,4095
8.106871221000006,4095,2430,3195
8.109563005999973,4095,3115,3273
8.112253415999987,4095,2733,3184
8.114946325999995,4095,4095,4095
8.117642526999987,4095,3707,3408
8.120336019999968,4095,4095,4095
8.123027596999975,4095,1717,2998
8.125722297999971,4095,4095,4095
8.128411458000016,4095,4095,3818
8.131103575999987,4095,4095,4095
8.133794361000014,4095,2754,3193
8.13648397899999,4095,4095,3599
8.13917505500001,4095,4095,4095
8.14186638199999,4095,4095,4095
8.144558125000003,4095,4095,4095
8.147256201000005,4095,1705,2913
8.149950818999969,4095,4095,4095
8.15263956299998,4095,489,2523
8.155331805999992,4095,4095,4095
8.158022924000022,4095,4095,3462
8.160711708000008,4095,4095,4095
8.163402659999974,4095,2994,3301
8.166094320000013,4095,3716,3216
8.16878502100002,4095,4095,3275
8.171475138999995,4095,4095,4095
8.174165673999994,4095,3478,3335
8.17685662499997,4095,4095,2554
8.179549285000007,4095,2934,3266
8.182249986999977,4095,1995,2846
8.184942687999978,4095,4095,4095
8.187635681000017,4095,2331,3137
8.190327049000018,4095,4095,4095
8.193042084000012,4095,623,2639
8.195736159999967,4095,4095,4095
8.198429277999992,4095,4095,3474
8.201120271999969,4095,4095,4095
8.203810056000009,4095,4095,3701
8.206503173999977,4095,2246,3185
8.209193459000005,4095,4095,4095
8.211882869000021,4095,4095,4095
8.214574986999992,4095,4095,3519
8.21726923,4095,4095,3553
8.219960347999972,4095,4095,4095
8.222651882999969,4095,527,2653
8.225343583999972,4095,4095,4095
8.228034578000006,4095,3472,3344
8.230727779000006,4095,4095,4095
8.233418563999976,4095,2320,3137
8.236108264999984,4095,4095,4095
8.238799217000008,4095,4095,3043
8.241491000999986,4095,4095,4095
8.244180244999995,4095,4095,4095
8.246876821,4095,2230,3046
8.249571231000004,4095,2927,3309
8.252261181999984,4095,2595,3136
8.254957009000009,4095,4095,4095
8.257649377000007,4095,3780,3391
8.260341160999985,4095,4095,4095
8.263034237999989,4095,1894,3063
8.265725772999986,4095,4095,4095
8.268427890999988,4095,4095,3792
8.27114609199998,4095,4095,4095
8.273867834999976,4095,3105,3281
8.27656628699998,4095,4095,3694
8.27925682099999,4095,4095,4095
8.281947773000013,4095,4095,4095
8.284648849000007,4095,4095,4095
8.287352425999984,4095,1904,2935
8.290044335000005,4095,4095,4095
8.292735203000007,4095,337,2497
8.295427862999986,4095,4095,4095
8.298118897999984,4095,3408,3217
8.300807848999966,4095,4095,4095
8.303499800999987,4095,4095,3747
8.306193168999982,4095,2549,3209
8.30888553699998,4095,4095,4095
8.311577112999998,4095,4095,4095
8.31426798199999,4095,4095,3696
8.316956558000015,4095,4095,4095
8.319676842999968,4095,4095,4095
8.32237096099999,4095,1767,2800
8.325086453999972,4095,4095,4095
8.327778488999968,4095,2991,3319
8.330469982000011,4095,4095,4095
8.333162099999981,4095,1126,2763
8.335851843,4095,4095,2277
8.338542127999972,4095,4095,2081
8.341231995999976,4095,4095,4095
8.343921281000007,4095,4095,3654
8.346621232000018,4095,2500,3203
8.349311267000019,4095,4095,4095
8.352000384999997,4095,4095,4095
8.354692461000013,4095,4095,3107
8.357388662999995,4095,3789,3357
8.36008065599998,4095,4095,4095
8.362771356999986,4095,587,2655
8.365463224999985,4095,4095,4095
8.368172135000009,4095,4095,3849
8.370864419999975,4095,4095,4095
8.37355482999999,4095,2437,3152
8.376245906000008,4095,4095,3711
8.378937649000022,4095,4095,4095
8.381634226000017,4095,4095,4095
8.384336718999975,4095,4095,4095
8.387025919999985,4095,2010,2974
8.38971524699997,4095,4095,4095
8.39240503100001,4095,2462,3120
8.395093857999996,4095,4095,4095
8.397786892999989,4095,4095,3633
8.400477885999976,4095,4095,4095
8.403169170000012,4095,2263,3175
8.405862454999976,4095,4095,4095
8.408551697999997,4095,4095,3538
8.411242941000012,4095,4095,4095
8.413933767999993,4095,4095,3533
8.41662455300002,4095,4095,3709
8.419321421000006,4095,3882,3953
8.422013955000011,4095,4095,4095
8.424702990000014,4095,4095,4095
8.427394774999982,4095,1861,3014
8.430086226000014,4095,4095,4095
8.43277580299997,4095,639,2685
8.435466754000004,4095,4095,4095
8.438156664000019,4095,4095,3510
8.440844657000014,4095,4095,4095
8.443536649999999,4095,3440,3395
8.44623230999997,4095,2406,3199
8.448932178000007,4095,4095,4095
8.451625837999984,4095,4095,4095
8.454316997999967,4095,4095,3569
8.45700707399999,4095,4095,3732
8.459735691999981,4095,4095,4095
8.462429017999966,4095,1027,2615
8.465120345000003,4095,4095,4095
8.467809380000006,4095,2895,3223
8.470500830999981,4095,4095,4095
8.47319190799999,4095,1751,2965
8.47588115100001,4095,4095,4095
8.478572726999971,4095,4095,3090
8.481266636999976,4095,4095,4095
8.483965754999986,4095,4095,3898
8.486664081000015,4095,2242,3193
8.489353198999993,4095,4095,4045
8.492042192999975,4095,4095,4095
8.494730893999986,4095,4095,3239
8.497420637000005,4095,4095,3679
8.500109254999984,4095,4095,4095
8.502802873000007,4095,640,2679
8.505494783000017,4095,4095,4095
8.508185067999989,4095,4095,3789
8.510878019000018,4095,4095,4095
8.513570303999984,4095,4085,3556
8.516262505999975,4095,3789,3405
8.518955873999971,4095,4095,4095
8.521649324999998,4095,4095,4095
8.524343192999993,4095,4095,4095
8.527037145000008,4095,2224,3127
8.529730428999983,4095,4095,4095
8.532419630999982,4095,2790,3215
8.535111123999968,4095,4095,4095
8.537804159000018,4095,4095,3447
8.540492859999972,4095,4095,4095
8.543183645,4095,2597,3209
8.545876055000008,4095,4095,4095
8.548575422999988,4095,4095,3416
8.551268290999985,4095,4095,4095
8.553960616999973,4095,4095,3697
8.556651151999972,4095,4095,3523
8.559343394999985,4095,4095,4095
8.562034013000016,4095,4095,3316
8.564722340000003,4095,4095,4095
8.56741333299999,4095,1958,3106
8.57010386799999,4095,4095,4095
8.572793902,4095,303,2507
8.575484145000019,4095,4095,4095
8.57817522199997,4095,3743,3287
8.580865422999977,4095,4095,4095
8.58355845799997,4095,3339,3377
8.586255200999972,4095,2544,3204
8.588944443999992,4095,4095,4095
8.591644062,4095,4095,4095
8.594333846999973,4095,3870,3409
8.597048964999999,4095,4095,3515
8.599740042000008,4095,4095,4095
8.602430450999975,4095,682,2546
8.605122860999984,4095,4095,4095
8.607812146000015,4095,2443,3183
8.610501096999997,4095,4095,4095
8.613191798999992,4095,1319,2842
8.615880083999969,4095,4095,2395
8.618568910000022,4095,4095,2224
8.621259319999979,4095,4095,4095
8.62394810500001,4095,4095,3891
8.626636847999976,4095,2515,3184
8.62932800699997,4095,4095,4095
8.632018916999982,4095,4095,4095
8.634708993999993,4095,4095,3043
8.637400570000011,4095,3667,2349
8.640090563000001,4095,4095,4095
8.642778305999968,4095,722,2706
8.64546917399997,4095,4095,4095
8.64817233399998,4095,4095,3734
8.650897702000009,4095,4095,4095
8.653591279000011,4095,2557,3173
8.656280187999982,4095,4095,3617
8.658970764999992,4095,4095,4095
8.661662257999978,4095,4095,4095
8.664352209000015,4095,4095,4095
8.667044493999981,4095,1909,2960
8.669736236999995,4095,4095,4095
8.672424354999976,4095,1323,2690
8.675117348000015,4095,4095,4095
8.677807924999968,4095,4091,3515
8.680497000999992,4095,4095,4095
8.68318728600002,4095,1756,3007
8.685892111999976,4095,4095,4095
8.68858252199999,4095,4095,3115
8.69127172399999,4095,4095,4095
8.693960591999996,4095,4095,3590
8.696648917999994,4095,4095,4095
8.699343703000011,4095,4095,4095
8.702034362999996,4095,4095,4095
8.704722606000018,4095,4095,4095
8.707414266,4095,1907,2927
8.710104924999996,4095,4095,4095
8.712793626999996,4095,612,2642
8.715483828000004,4095,4095,4095
8.71817457100002,4095,4095,3580
8.720862564000015,4095,4095,4095
8.723552766000012,4095,3490,3426
8.726243508999971,4095,2389,3200
8.728932669000017,4095,4095,2782
8.731624119999992,4095,4095,4095
8.734313530000009,4095,4095,4095
8.737001980999992,4095,3802,3399
8.739726557999973,4095,4095,4095
8.742420009,4095,572,2542
8.74510925200002,4095,4095,4095
8.74780516200002,4095,3125,3287
8.75049861299999,4095,4095,4095
8.753189065000015,4095,1584,2894
8.75587760000002,4095,4095,4095
8.758566300999973,4095,3852,3239
8.761257752999995,4095,4095,4095
8.763948329000016,4095,4095,4095
8.766640530000018,4095,2439,3213
8.769343231999983,4095,3920,3897
8.772032475000003,4095,4095,3489
8.77472346799999,4095,4095,2941
8.77741346099998,4095,2886,3169
8.780102328999988,4095,4095,4095
8.782791947000021,4095,1263,2842
8.785481523999977,4095,4095,4095
8.788189100000011,4095,4095,3826
8.79088442699998,4095,4095,4095
8.793579920000013,4095,2416,3170
8.796267120999971,4095,4095,4095
8.798954613999967,4095,4095,4095
8.801644023999984,4095,4095,4095
8.804335391999984,4095,4095,4095
8.807026426999983,4095,2109,3088
8.809715503000007,4095,4095,4095
8.812403120999988,4095,1410,2711
8.815092573000015,4095,4095,4095
8.817782899000008,4095,4095,3655
8.820470267000019,4095,4095,4095
8.82316001099997,4095,1999,3102
8.825852795000003,4095,4095,4095
8.828543412999977,4095,4095,4095
8.83123378199997,4095,4095,4095
8.833924566000007,4095,4095,3617
8.836611892999997,4095,3875,3426
8.839303678000022,4095,3263,3210
8.841994253999985,4095,2715,3114
8.844683497000005,4095,4095,4095
8.847374323999986,4095,1679,2958
8.850070899999992,4095,4095,4095
8.852760767999996,4095,289,2541
8.855452178000007,4095,4095,4095
8.858142462999979,4095,3885,3367
8.860832581000011,4095,4095,4095
8.863523989999976,4095,3823,3469
8.86621306699999,4095,2371,3196
8.868902767999998,4095,4095,4095
8.871593845000007,4095,4095,4095
8.874283504999994,4095,4095,3603
8.876971748000017,4095,4095,3465
8.879695948999995,4095,4095,4095
8.882388983999988,4095,692,2533
8.885102060000008,4095,4095,4095
8.887810469999977,4095,2959,3266
8.890510254999981,4095,4095,4095
8.893207163999989,4095,1526,2858
8.895895574000008,4095,4095,4095
8.898584067000002,4095,4014,3351
8.90127431000002,4095,4095,4095
8.903962428,4095,4095,4095
8.906654254999978,4095,2374,3187
8.90934512299998,4095,3252,3234
8.912034282999969,4095,3169,3223
8.914723483999978,4095,4095,4095
8.917412102000014,4095,3734,3402
8.920103511999969,4095,4095,4095
8.922797505000005,4095,1482,2902
8.925489122999977,4095,4095,4095
8.928179532999991,4095,3595,3403
8.930871818000014,4095,4095,4095
8.933571603000019,4095,2874,3215
8.936260096000012,4095,4095,3719
8.938951588999998,4095,4095,4095
8.94164187399997,4095,4095,4095
8.94433086700002,4095,4095,4095
8.947021942999982,4095,2037,3053
8.949719103000007,4095,4095,4095
8.952412720999973,4095,1525,2737
8.955106838999995,4095,4095,4095
8.957796249000012,4095,4095,3461
8.96048482499998,4095,4095,4095
8.963176901999987,4095,2474,3198
8.965867020000019,4095,4095,4095
8.968556137999997,4095,4095,3391
8.971247463999987,4095,4095,4095
8.973937790999969,4095,3534,3383
8.976625909000006,4095,4095,3776
8.979317193999975,4095,4095,3950
8.982008687000018,4095,3988,3290
8.984698471999991,4095,4095,4095
8.987391797999976,4095,1907,2957
8.990087458000005,4095,4095,4095
8.992775617000007,4095,752,2697
8.995464986000002,4095,4095,4095
8.99815539499997,4095,3441,3280
9.000844471999983,4095,4095,4095
9.003534839999986,4095,4095,3774
9.006226499999968,4095,2270,3200
9.00891582600002,4095,4095,4095
9.01165748599999,4095,4095,4095
9.014376395,4095,4095,3732
9.017101222000008,4095,3573,3357
9.019794006999973,4095,4095,4095
9.022485791000008,4095,270,2543
9.025176326000008,4095,4095,4095
9.027865610999982,4095,3351,3379
9.030556729000011,4095,4095,4095
9.033246722000001,4095,1661,2917
9.035936132000018,4095,4095,3639
9.03862650000002,4095,4095,2735
9.041316867999967,4095,4095,4095
9.044005153,4095,4095,4095
9.046695729000021,4095,2474,3175
9.049397263999992,4095,3154,3226
9.052088131999994,4095,3140,3220
9.054789459000006,4095,4095,4095
9.057480367999972,4095,3566,3376
9.06017544499997,4095,4095,4095
9.062866771000017,4095,1404,2894
9.065557431000002,4095,4095,4095
9.06824654899998,4095,4095,4095
9.070936083999982,4095,4095,4095
9.07362707699997,4095,2926,3233
9.076315944999976,4095,4095,3674
9.079006687999993,4095,4095,4095
9.08169964000001,4095,4095,4095
9.084389966000003,4095,4095,4095
9.087081583999975,4095,1715,2925
9.089794202000007,4095,4095,4095
9.09251298700002,4095,1552,2768
9.095207313000003,4095,4095,4095
9.097897139999986,4095,4095,3887
9.10058542500002,4095,4095,4095
9.103275875999998,4095,3369,3407
9.105966410999997,4095,3482,3222
9.108655694999982,4095,4095,2878
9.111346980000008,4095,4095,4095
9.114037931999974,4095,4095,3551
9.116729716000009,4095,3776,3409
9.11942187599999,4095,2914,3254
9.122115952999991,4095,2512,3067
9.12480644599998,4095,4095,4095
9.127496771999972,4095,2264,3177
9.130186806999973,4095,4095,4095
9.132876467000017,4095,304,2557
9.135567293000008,4095,4095,4095
9.13825870300002,4095,3939,3440
9.140946696000015,4095,4095,4095
9.143639146999988,4095,4095,3645
9.146333474000016,4095,2015,3133
9.149058008999987,4095,4095,4095
9.151753127000006,4095,4095,4095
9.15444299500001,4095,4095,3662
9.157135987999993,4095,4095,3495
9.159825064000017,4095,4095,4095
9.16251618199999,4095,320,2549
9.165206967000017,4095,4095,4095
9.167896169000016,4095,3965,3525
9.17058653700002,4095,4095,4095
9.173276404999967,4095,1923,3043
9.175966023,4095,4095,3966
9.178655891000005,4095,4095,2886
9.181346593,4095,4095,4095
9.184038461,4095,4095,4095
9.186730204000014,4095,2224,3178
9.189420405000021,4095,3008,3344
9.192114607000008,4095,3147,3216
9.19480893299999,4095,4095,4095
9.19749817600001,4095,3889,3439
9.200185503,4095,4095,4095
9.202877286999978,4095,1685,2991
9.205567696999992,4095,4095,4095
9.20825735699998,4095,4095,3811
9.21094684999997,4095,4095,4095
9.213639134999994,4095,2955,3248
9.216331045000004,4095,4095,3712
9.219023162999974,4095,4095,4095
9.221731821999981,4095,4095,4095
9.22442881500001,4095,4095,4095
9.227123225000014,4095,1809,2897
9.22981417699998,4095,4095,4095
9.232504002999974,4095,658,2543
9.235194412999988,4095,4095,4095
9.237886156000002,4095,4095,3457
9.240574273999982,4095,4095,4095
9.243263808999984,4095,2810,3257
9.245954760000018,4095,4095,3309
9.248653212000022,4095,4095,2877
9.251348704999998,4095,4095,4095
9.254041115000007,4095,4095,3504
9.25673014900002,4095,4095,3569
9.259422809,4095,3196,3264
9.262112301999991,4095,2390,2961
9.264802169999996,4095,4095,4095
9.267495247,4095,2165,3149
9.27018528100001,4095,4095,4095
9.272873774999994,4095,752,2676
9.275564392999968,4095,4095,4095
9.278254511,4095,4095,3467
9.280945170999985,4095,4095,4095
9.28363828900001,4095,4095,3648
9.286330323000016,4095,2288,3071
9.289047940999978,4095,4095,4095
9.29174601799997,4095,4095,4095
9.294435802999999,4095,4095,3783
9.29712450400001,4095,3968,3398
9.299812872000018,4095,4095,4095
9.302505531999998,4095,319,2575
9.305194608000022,4095,4095,4095
9.307885477000013,4095,3281,3386
9.31057834500001,4095,4095,4095
9.313270920999969,4095,2073,3091
9.31596233099998,4095,4095,4095
9.318652907,4095,4095,3023
9.321342524999977,4095,4095,4095
9.324030768,4095,4095,4095
9.32672159499998,4095,1956,3037
9.329411254999968,4095,2762,3250
9.332100455999978,4095,2656,3190
9.334789657999977,4095,4095,4095
9.337479400999996,4095,3821,3389
9.340167644000019,4095,4095,4095
9.342857719999984,4095,1610,2945
9.345549962999996,4095,4095,4095
9.348239915000022,4095,4095,3751
9.350937323999972,4095,4095,4095
9.353631900999972,4095,2906,3250
9.356323227000019,4095,4095,3567
9.359012929000016,4095,4095,4095
9.361704379999992,4095,4095,4095
9.364392039999984,4095,4095,4095
9.367083199999968,4095,1643,2814
9.369779650999988,4095,4095,4095
9.372468018999996,4095,589,2516
9.375161971000011,4095,4095,4095
9.377854921999983,4095,3628,3275
9.380545289999986,4095,4095,4095
9.383236908000015,4095,2901,3273
9.385927650999975,4095,4095,3309
9.388616103000004,4095,4095,2905
9.391306178999969,4095,4095,4095
9.394002338999996,4095,3741,3398
9.39669162399997,4095,3702,3361
9.399381742000003,4095,2706,3200
9.402069817999973,4095,1856,2837
9.40475664500002,4095,4095,4095
9.40745463799999,4095,2146,3122
9.410149214,4095,4095,4095
9.413479956000003,4095,637,2633
9.416265114999987,4095,4095,4095
9.418979607999972,4095,4095,4095
9.421682142999998,4095,4095,4095
9.424378552999997,4095,4095,4095
9.427075545999969,4095,1447,2837
9.429772455999966,4095,4095,4095
9.432467740999982,4095,558,2521
9.435171524999987,4095,4095,2325
9.437880309999969,4095,3335,3173
9.440577927999982,4095,4095,4095
9.443275503999985,4095,2987,3260
9.44597208099998,4095,3206,3222
9.448663866000004,4095,4095,2795
9.451383442000008,4095,4095,4095
9.45409351799998,4095,3598,3344
9.456790594999973,4095,3305,3280
9.459488212999986,4095,2798,3306
9.462184080999975,4095,1107,2619
9.464878116000023,4095,4095,4095
9.46757390099998,4095,2390,3146
9.470268768999972,4095,4095,4095
9.472964470000022,4095,1231,2783
9.475693046000004,4095,4095,2431
9.47839262299999,4095,3223,2033
9.481112908,4095,4095,4095
9.483808566999983,4095,4095,3646
9.486505394000005,4095,1781,2943
9.489200095000001,4095,3268,3179
9.491893754999978,4095,4095,3298
9.494602080999982,4095,4095,2736
9.49731269900002,4095,3033,3153
9.500005025999997,4095,4095,4095
9.502696269000012,4095,1055,2763
9.505396261999977,4095,4095,4095
9.508093255000006,4095,3892,3493
9.510790665000002,4095,4095,4095
9.513487157999975,4095,2543,3155
9.516180358999975,4095,4095,2417
9.518877061000012,4095,4095,4095
9.521575095000003,4095,4095,4095
9.524269214000014,4095,4095,4095
9.526964289999967,4095,1739,2877
9.536245725000015,4095,4095,4095
9.539151674999971,4095,985,2611
9.541873918000022,4095,4080,3216
9.54457303700002,4095,4095,4095
9.54727161300002,4095,1509,2832
9.55000064799998,4095,4095,4095
9.552711391000003,4095,299,2546
9.55541100900001,4095,4095,4095
9.558106626999972,4095,3508,3238
9.560797078000007,4095,4095,4095
9.563489655000012,4095,3536,3427
9.56618356399997,4095,2096,3118
9.568873682999993,4095,4095,2719
9.571567008999978,4095,4095,4095
9.574265626999988,4095,4095,3635
9.576955704,4095,4095,3440
9.579675447,4095,4095,4095
9.582367523000016,4095,373,2499
9.585082765999971,4095,4095,4095
9.587775301000022,4095,2433,3136
9.590466418999995,4095,4095,4095
9.59315762,4095,2091,3088
9.595863862999977,4095,4095,4095
9.598555230999978,4095,4095,3039
9.601242974999991,4095,4095,4095
9.603932092999969,4095,4095,4095
9.606621168999993,4095,1855,2975
9.609313370999985,4095,2447,3154
9.612003154999968,4095,2878,3201
9.614695606999987,4095,4095,2873
9.617385807999995,4095,3698,3365
9.62007513499998,4095,4095,4095
9.622764168999993,4095,1388,2864
9.625454995999974,4095,4095,4095
9.628145156000016,4095,3893,3484
9.630834815000014,4095,4095,4095
9.633527433999973,4095,3136,3277
9.636220718000004,4095,4095,3632
9.638913128000013,4095,4095,4095
9.641605912999978,4095,4095,4095
9.644296073000021,4095,4095,4095
9.646986481999988,4095,1611,2875
9.649677434000012,4095,4095,4095
9.652405885000007,4095,723,2541
9.655101962000003,4095,4095,4095
9.657793538000021,4095,3664,3301
9.660483113999987,4095,4095,4095
9.663174399000013,4095,2854,3248
9.66586647600002,4095,3373,3198
9.668559009999967,4095,4095,2767
9.671250627999996,4095,4095,4095
9.673946829999977,4095,3955,3468
9.676641030999974,4095,4080,3433
9.679332440999985,4095,2304,3151
9.682023184000002,4095,2217,2917
9.684713594000016,4095,4095,4095
9.687406253999995,4095,1773,2887
9.690096955000001,4095,4095,4095
9.692786323000007,4095,811,2672
9.695491774999994,4095,4095,4095
9.698182809000002,4095,3787,3271
9.700869927999975,4095,4095,4095
9.703559337000002,4095,4095,3551
9.706248039000002,4095,1913,3114
9.708935989999986,4095,4095,4095
9.711628108000014,4095,4095,4095
9.714320225999984,4095,4095,3728
9.717043468999975,4095,3701,3349
9.71973871299997,4095,4095,4095
9.72243141399997,4095,241,2544
9.725120740000023,4095,4095,4095
9.727812816999972,4095,2887,3243
9.730504101999998,4095,4095,4095
9.733193885999981,4095,2224,3104
9.73588308799998,4095,4095,4095
9.738575706000006,4095,4095,3013
9.741267031999996,4095,4095,4095
9.743955442000015,4095,4095,4095
9.746644684999978,4095,2160,3111
9.749335386999974,4095,2209,3141
9.752028213000017,4095,2499,3067
9.75472149799998,4095,4095,4095
9.757411949000016,4095,3920,3409
9.760103275999995,4095,4095,4095
9.762795686000004,4095,1573,2921
