time,emg1,emg2,emg3
0.003463175999968371,0,0,0
0.006484687000011036,2928,304,0
0.009490995000305702,4449,224,0
0.013512741000340611,4929,7169,0
0.0174620100001448,7425,1856,0
0.020498024000062287,2800,3328,0
0.02353388800020184,0,2304,0
0.027512713000305666,2144,3488,0
0.030534785000327247,528,3328,0
0.03449531100022796,4433,3040,0
0.037529009000081714,5361,2224,0
0.041776970000228175,416,10018,0
0.04446443699998781,800,1872,0
0.04846901600012643,3840,7281,0
0.05145705400036604,912,3344,0
0.055436581000321894,1888,8610,0
0.05845780500021647,3136,3840,0
0.06242860100019243,0,5665,0
0.06544964300019274,1184,2400,0
0.06942185900015829,4337,3632,0
0.07245018100002198,624,3424,0
0.0764403980001589,3168,2304,0
0.07946040400020138,2928,2160,0
0.0834247310003775,768,1136,0
0.08643236700027046,2560,1648,0
0.09043810800039864,784,3216,0
0.0934850080002434,2304,2864,0
0.09775578200014934,7473,1952,0
0.10084337400030563,592,2160,0
0.10470560800013118,0,1424,0
0.10773267300010048,5553,2864,0
0.11173189400005867,1808,5681,0
0.11479544800022268,3120,3840,0
0.11871672000006583,3680,1904,0
0.1217829150000398,1344,1792,0
0.12559066700032417,1104,1120,0
0.12871671400034757,5729,3296,0
0.13275968000016292,1760,5137,0
0.13567514500027755,2640,2672,0
0.13962237100031416,2528,6961,0
0.1428140800003348,192,2240,0
0.14670121300014216,768,6833,0
0.1497162600003321,2224,3504,0
0.1536007200002132,2384,3008,0
0.15668616200036922,7745,2848,0
0.16063209200001438,1296,6897,0
0.16368448900038857,0,2224,0
0.1676388250002674,3584,2480,0
0.1707015870001669,688,4145,0
0.1745895610001753,5153,4273,0
0.17771700799994505,4048,2048,0
0.1816164730003038,1280,1200,0
0.18457551900019098,752,1792,0
0.18852090800010046,4097,3824,0
0.19155839900031424,208,1952,0
0.195469667999987,2608,2528,0
0.19879657499996028,4593,2720,0
0.2027073570002358,1680,2576,0
0.20571067700029744,864,2112,0
0.20966606100000718,1152,3840,0
0.21274872000003597,1648,2336,0
0.2167335440003626,5281,6177,0
0.21969301000035557,3328,2400,0
0.2236401210002441,4881,3840,0
0.22775323200039566,3472,2272,0
0.2307953110002927,2496,4577,0
0.23467074700010926,2304,2112,0
0.23769051800036323,4881,2064,0
0.2415605650003272,1568,1584,0
0.24479863700025817,288,1168,0
0.2486615120001261,4977,3440,0
0.2517572210003891,1488,2608,0
0.25567904000035924,1120,1424,0
0.2587549290001334,3600,1648,0
0.2628495990002193,128,1216,0
0.26599142500026574,2192,2464,0
0.269777525000336,4161,2848,0
0.27296263200014437,304,3584,0
0.2767814700000599,4113,2048,0
0.27985432800005583,2224,2400,0
0.28373688600004243,432,816,0
0.2868675770000664,4529,2400,0
0.29058242500013876,0,6769,0
0.29371574800006783,4785,4337,0
0.2978077790003226,5841,2048,0
0.3008446250000816,1488,1776,0
0.30379002100016805,0,416,0
0.30790258900015033,4273,1072,0
0.3109115940001175,1376,3872,0
0.31470379000029425,3344,4833,0
0.3178172440002527,5553,2400,0
0.3216494790003708,0,5521,0
0.3249402060000648,0,1280,0
0.3286983840002904,6897,2176,0
0.33195840100006535,1792,4145,0
0.3358903650000684,2096,1792,0
0.3388429780002298,4465,2048,0
0.34203649300025063,0,1040,0
0.34593080500008,768,5889,0
0.3488766570003463,7121,2048,0
0.35291664200030937,992,7169,0
0.3559540160003962,1424,2672,0
0.3597943849999865,3872,5793,0
0.36295761100018353,208,1536,0
0.366777994000131,928,7185,0
0.3698034010003539,3296,3600,0
0.3736693070000001,3312,8882,0
0.37686639699995794,6401,2352,0
0.3806656810002096,5793,2480,0
0.38477618700017047,1456,1632,0
0.38771822100034115,4193,3632,0
0.3909291370000574,0,3120,0
0.3948551309999857,4257,2688,0
0.39796678600032465,4689,1920,0
0.40180614800010517,944,5297,0
0.4048636280003848,1584,1936,0
0.40875807200018244,4161,9074,0
0.41202217800037033,880,3776,0
0.4159223650003696,3280,8306,0
0.4188743150002665,4097,720,0
0.4227546209999673,0,768,0
0.4259279190000598,2528,2272,0
0.42985919900002045,6193,2816,0
0.43281597600025634,1792,3728,0
0.43679106600029627,3328,1632,0
0.4397687980003866,1520,4353,0
0.4428843850000703,0,592,0
0.4468547999999828,1024,4641,0
0.45060707300035574,1872,2816,0
0.4537733140000455,5377,4000,0
0.45757970700014994,4865,2160,0
0.4608467580001161,1184,1168,0
0.46374576500011244,0,1952,0
0.4675765000001775,2816,8514,0
0.47063202700019247,1040,2528,0
0.4745288620001702,5889,4913,0
0.4784572400003526,4961,1840,0
0.48151441600020917,768,3088,0
0.48450791699997353,0,768,0
0.4886374840002645,4321,3072,0
0.49186305000012,1216,2720,0
0.49576095200018244,1456,912,0
0.49866789199995765,4080,1120,0
0.5027391319999879,0,1024,0
0.5058351659999971,5969,3632,0
0.5097361240000282,3984,3184,0
0.5127451830003338,2752,3920,0
0.5167980380001609,3136,1184,0
0.519729577000362,2800,2816,0
0.5228606640002909,0,1440,0
0.5267710709999847,9058,4193,0
0.5308215070003826,2352,2256,0
0.53360388100009,4593,4048,0
0.5375600249999479,4657,1648,0
0.5407136440003342,2048,1136,0
0.5435800840000411,0,2304,0
0.5477025730001515,4817,5969,0
0.5508142890003,0,3104,0
0.5545873470000515,5009,3568,0
0.5578489350000382,4865,1520,0
0.5617922900000849,768,240,0
0.5647712230002071,848,2080,0
0.5687160960001165,6833,1072,0
0.57176900200011,1024,3616,0
0.5757254200002535,1792,1792,0
0.5787939080000797,3744,1568,0
0.5827015400000164,160,1184,0
0.5857843740000135,1264,1136,0
0.5897753290000765,6801,3792,0
0.5928557010001896,1840,2544,0
0.5968102330002694,6865,2544,0
0.5998822110000219,1984,1792,0
0.6036550710000483,176,3024,0
0.6069400549999955,3680,2032,0
0.6108911690002969,0,7953,0
0.6138276840001708,4401,2048,0
0.6179155510003511,7361,3952,0
0.6208813540001756,1376,1856,0
0.6248330710000118,0,1504,0
0.6279784070002279,5553,2160,0
0.630994254000143,0,6209,0
0.6349349820002317,6049,2320,0
0.6378972950001298,4977,1040,0
0.6419500530000732,5313,4657,0
0.645729090000259,1552,2480,0
0.6489639010001156,8017,3984,0
0.6520626159999665,448,3792,0
0.6558277990002352,4865,5841,0
0.6597379439999713,4689,1536,0
0.6628860990003886,1840,1712,0
0.6667313340003602,1440,2400,0
0.6700606750000588,2928,4657,0
0.6737412780003069,1088,3216,0
0.6767979270002797,5889,3920,0
0.6809007920001022,1408,1744,0
0.6838576090003698,656,1360,0
0.6878018740003427,4321,2080,0
0.6908343160002914,768,2192,0
0.6947723940002106,3328,1616,0
0.6979964690003726,6161,1936,0
0.701711035000244,0,1936,0
0.7047916190003889,768,2112,0
0.7088642749999963,5537,2304,0
0.7120066180000322,2832,4000,0
0.7157933729999968,2224,1792,0
0.7188900490000378,4865,1968,0
0.7227023750001536,480,2864,0
0.7259641460000239,928,1632,0
0.7298683670001083,3216,2192,0
0.7328405510002085,1760,2960,0
0.7367018510003618,3584,1232,0
0.7397199649999493,3104,1632,0
0.7427396440002667,0,272,0
0.7467036900002313,1024,6401,0
0.7497926710002503,2464,5681,0
0.7536885120002808,5617,4881,0
0.757581649000258,7649,2480,0
0.7607051270001648,2560,1952,0
0.7645252199999959,256,2352,0
0.7675265670000044,8177,2416,0
0.7715152290002152,1216,3296,0
0.7745048189999579,3424,3056,0
0.7784512830003223,5121,2176,0
0.781697694000286,256,1984,0
0.7857025319999593,3056,2720,0
0.788744983000015,4785,3360,0
0.7926950860000943,288,4305,0
0.7957020220001141,2288,2112,0
0.7997297850001814,3072,912,0
0.8025488690000202,2000,2512,0
0.8066766440001629,2208,1904,0
0.8097277110000505,4881,3616,0
0.8135021990001405,2784,3856,0
0.8166883300000336,7553,2560,0
0.8206770450001386,1824,1008,0
0.8235705770002824,0,1312,0
0.827636196000185,4913,1552,0
0.8307080310000856,0,3856,0
0.8337086910000835,672,2512,0
0.8376980120001463,7985,7345,0
0.8408237520002331,608,1648,0
0.844915291000234,336,6401,0
0.8479228500000318,3872,1888,0
0.8516892770003324,0,3824,0
0.8548235940002087,2048,2560,0
0.8587588320001487,4977,2976,0
0.8617863960002978,0,640,0
0.8650196570001754,0,752,0
0.868805285000235,5745,2464,0
0.8717555650000577,800,3856,0
0.8757288730002983,1488,1936,0
0.8788531380000677,3472,1200,0
0.8829071410000324,1104,1296,0
0.885998015000041,1024,1296,0
0.8897594660002142,4385,4113,0
0.8929957919999651,2000,3680,0
0.8968986780000705,6033,3120,0
0.8998857210003735,1616,1120,0
0.9037571339999886,1568,7889,0
0.9069190840000374,5377,3104,0
0.9106722770002307,0,5377,0
0.9138249720003842,2320,2720,0
0.9177827610001259,7473,2256,0
0.920806800000264,1536,928,0
0.9237851800003227,0,384,0
0.9277236220000304,3520,5313,0
0.930753635000201,0,4945,0
0.9347650780000549,4129,2400,0
0.9377492830003575,5633,2128,0
0.9417713090001598,1824,992,0
0.9449690410001494,0,2816,0
0.9487171300002046,5041,1792,0
0.9519542510001884,1088,3280,0
0.9557639260001451,2144,1520,0
0.9589442410001539,3072,1792,0
0.9620293360003416,0,176,0
0.9659087200002432,256,8129,0
0.9688730570001098,2848,2352,0
0.9729317149999588,2080,8914,0
0.9759878650002065,3328,2272,0
0.9799544210000022,4497,5169,0
0.9830137970002397,80,1072,0
0.9868322990000706,2048,4817,0
0.9900804359999711,3840,3536,0
0.9937774940003692,4577,6929,0
0.9969264060000569,7009,1264,0
1.0009632159999455,4721,3296,0
1.0038706690002073,672,1952,0
1.0078104860003805,9730,3840,0
1.0118399030002365,1216,3328,0
1.0149779230000604,4305,3040,0
1.018899082000189,5889,1152,0
1.0219848280003134,1200,1280,0
1.0258861780002917,176,2656,0
1.0287747290003608,6721,2640,0
1.03261211500012,112,3568,0
1.035725665999962,2304,1024,0
1.0396045180000328,4737,2016,0
1.042724292999992,496,1952,0
1.0466814690003048,1296,2848,0
1.04978105400005,3328,2896,0
1.0536308740001914,784,3152,0
1.0567325010001696,8706,3600,0
1.0605887130000156,2304,1024,0
1.0636020450001524,0,1520,0
1.0675278400003663,2992,2160,0
1.070586428000297,3360,4929,0
1.0748287330002313,2992,2624,0
1.0778266810002606,6689,1632,0
1.0818042290002268,2096,272,0
1.084769203000178,2608,1680,0
1.088717215000088,4881,1632,0
1.0918403340001532,1376,3936,0
1.0957522759999847,4241,2336,0
1.098760059000142,4705,1328,0
1.1027514590000465,192,928,0
1.1057510280002134,2080,1680,0
1.1097367810002652,4209,2304,0
1.1127550760002123,2144,2992,0
1.1168272469999465,4241,848,0
1.1197508970003582,2416,1984,0
1.123721955000292,3216,992,0
1.1267932190003194,4209,1616,0
1.1308333980000498,1024,3712,0
1.1338322530000369,4865,3648,0
1.1377760120003586,7937,2656,0
1.1410723100002542,2096,2320,0
1.1449787350002225,672,1504,0
1.1480359240003963,3152,2304,0
1.1519797949999884,528,2848,0
1.15499546700039,4753,3328,0
1.1588457370003198,5889,1632,0
1.1620294480003395,0,1488,0
1.1659050890002618,1424,2816,0
1.1688821770003415,7169,1712,0
1.1728007810002055,1072,3840,0
1.1760808170001837,2512,2368,0
1.1798812230003932,3744,1392,0
1.183038413000304,864,1888,0
1.186819141000342,1696,704,0
1.1898363080003946,4145,3696,0
1.1938048060001165,2640,2848,0
1.1970265640002253,5857,656,0
1.2007915250001133,976,768,0
1.2039037890003783,1920,608,0
1.2079556610001418,3808,1792,0
1.210884716000237,1744,4641,0
1.214923133999946,3552,2272,0
1.218047165000371,7937,2976,0
1.221807603000343,1072,1392,0
1.2248447890001444,1280,2304,0
1.2289557620001688,4833,3360,0
1.231913480000003,1376,2320,0
1.235851976000049,3504,1328,0
1.238886556000125,3952,3456,0
1.2429627290002827,336,5985,0
1.2460260160000871,96,1632,0
1.2499797460000082,3664,2976,0
1.2530029590002414,1648,3552,0
1.2568151980003677,2816,976,0
1.2599620330001926,2464,1632,0
1.2637295640001867,144,1760,0
1.2669331890001558,2896,1840,0
1.2707292439999947,464,5121,0
1.2738524460000917,3088,3248,0
1.2779467810000824,8370,3792,0
1.2808671890002188,608,1136,0
1.284772682000039,304,1520,0
1.2878141590003906,4257,3168,0
1.2916420599999583,480,3472,0
1.2948437380000541,3216,2560,0
1.2989717520003978,4961,1664,0
1.3018859580001845,656,1280,0
1.304902838000089,0,1440,0
1.3087695330000315,7569,4321,0
1.3126529390001451,1792,3232,0
1.3158315860000585,3376,1792,0
1.3197588040002302,3184,1616,0
1.3228510060002918,1824,1136,0
1.3267408650003745,1744,3152,0
1.3298379279999608,3440,2592,0
1.3336981420002303,752,4465,0
1.3367934090001654,6193,992,0
1.3406706109999504,2624,2064,0
1.3436990059999516,0,0,0
1.3468373130003783,3840,2288,0
1.3507096880002791,2352,4785,0
1.3536831559999882,2832,2592,0
1.357574778000071,9682,2096,0
1.3606394870002987,560,1280,0
1.3645383550001497,576,1520,0
1.3675599920002242,4113,3072,0
1.3717449560003843,0,3376,0
1.3747571860003518,2960,2560,0
1.3787725639999735,3856,1936,0
1.3818104050001239,16,2448,0
1.3858421240001917,1024,1904,0
1.3888758610000878,6689,3328,0
1.392715741000302,672,2368,0
1.395861302999947,4241,2304,0
1.3998686429999907,2800,1744,0
1.4029852860003302,2128,1600,0
1.4067921030000434,1024,3040,0
1.4100510540001778,3984,3024,0
1.4137948050001796,1040,2128,0
1.4169282800003202,8882,2608,0
1.4208881210001891,1696,1072,0
1.4238312470001802,720,1680,0
1.4279451160000463,5473,1680,0
1.430871629000194,1552,4113,0
1.4349105210003472,3232,3328,0
1.4379076640002495,5777,2048,0
1.441957351000383,1680,4016,0
1.4450270860002092,0,2864,0
1.4487500170002932,4593,2544,0
1.4519538270001249,592,2832,0
1.4559492830003364,2080,2256,0
1.4590029109999705,2960,768,0
1.462884307999957,544,592,0
1.4659933679999995,2784,4145,0
1.4699690490001558,4865,2608,0
1.4727822960003323,768,3968,0
1.4767652420000559,4177,1424,0
1.4798556610003288,3264,1168,0
1.4830303500002628,0,496,0
1.4868553760002214,2480,1024,0
1.4899577020000834,4289,6065,0
1.4938263220001318,1936,7345,0
1.4969426669999848,7505,2576,0
1.5010036200001196,4753,3520,0
1.5047984650000217,1008,1952,0
1.508033331000206,7425,2336,0
1.5110762250001244,0,4593,0
1.5148685060003118,4641,7697,0
1.5181127580003704,5521,1424,0
1.5219652710002265,0,7441,0
1.5250549370002773,1280,2352,0
1.5290005520000705,4129,3328,0
1.5320568910001384,960,2304,0
1.5359648370003924,2496,1872,0
1.5390766370001074,3600,1760,0
1.5428009770002973,496,1376,0
1.5459265829999822,768,688,0
1.5500056010000662,3328,3632,0
1.5530419179999626,96,2304,0
1.5568110290000732,1792,2064,0
1.5600574060003964,3328,2816,0
1.5629823290000786,0,2144,0
1.5669266260001677,768,4305,0
1.5701229520000197,3488,3328,0
1.5737912020003932,2512,2544,0
1.5770447090003472,7025,2352,0
1.5809572289999778,1472,4529,0
1.583896945000106,0,1280,0
1.5877975060002427,3728,2576,0
1.5910589270001765,1792,2592,0
1.594988485000158,4945,2592,0
1.5980849180000405,6225,1504,0
1.601762434000193,1024,7441,0
1.6050400010003614,256,1568,0
1.6089631570002894,4913,7521,0
1.6118749550000757,256,2000,0
1.6159574840003188,3120,8818,0
1.6190162780003448,4865,2976,0
1.6227677920001042,560,3328,0
1.625860066000314,1280,2288,0
1.6297519530003228,3328,6289,0
1.6328336780002246,800,2992,0
1.6367222570002014,6705,5073,0
1.6398490840001614,3072,560,0
1.643746167000245,848,7857,0
1.6467822130002787,2384,1872,0
1.6506620670002121,608,9682,0
1.6536145240002043,1376,2672,0
1.6575905620002231,9362,2768,0
1.6605973570003698,1456,864,0
1.6645811100001993,0,4769,0
1.6677374820001205,3792,2608,0
1.6708169560001807,0,3504,0
1.6749084620000758,1232,5185,0
1.678743575000226,5473,1872,0
1.6818413310002143,3936,2640,0
1.6849044250002407,432,2048,0
1.6888806199999635,9938,4129,0
1.6918615950003186,720,2800,0
1.6957676420001917,4689,2544,0
1.6997163920000276,4145,1792,0
1.7028468200001043,1888,2304,0
1.7067150600000787,752,4177,0
1.7098644020002212,5377,3808,0
1.7136795040000834,1280,3120,0
1.7168230219999714,6481,1792,0
1.720672401000229,2592,1136,0
1.723876009000378,0,1632,0
1.727017724000234,2912,1792,0
1.730857018000279,1808,5041,0
1.7348735720001969,3424,3312,0
1.7378796840002906,7425,2304,0
1.7418858680002813,1632,928,0
1.7450168180002947,2080,2544,0
1.7489210650001041,7953,2352,0
1.7519512270000632,0,3344,0
1.7548729550003372,1872,448,0
1.758853346000251,6273,1392,0
1.762016261000099,0,1088,0
1.7658698340001138,768,736,0
1.7690171440003724,6113,3440,0
1.772082949000378,16,3280,0
1.7759977860000618,2304,6689,0
1.7797659150000982,3536,1392,0
1.7828895570000896,3088,2144,0
1.7867807750003522,1552,2560,0
1.7900797980000789,4945,3648,0
1.79369479900015,864,2224,0
1.7970611990003817,4305,3664,0
1.800937587000135,2384,1920,0
1.8038422790000368,1248,1936,0
1.8079565580001145,3056,2672,0
1.8109876040002746,16,4817,0
1.8149031330003709,1968,2848,0
1.8178935800001454,6705,2128,0
1.82192599300015,1264,1184,0
1.8250111400002424,0,1984,0
1.8279064880002807,4449,1488,0
1.8319145059999755,3328,5169,0
1.8358974350003336,2816,1248,0
1.838895992000289,4865,2672,0
1.8420786810002028,0,944,0
1.8459224260000155,432,2160,0
1.8490675500001998,6481,2896,0
1.852965476999998,784,4097,0
1.8560356040002262,2736,1824,0
1.8600219330000982,2128,1616,0
1.8630156660001376,736,1200,0
1.8669633080003223,2480,1136,0
1.8701195200001166,2272,6401,0
1.873979902999963,2064,3840,0
1.8769490790000418,8370,3584,0
1.8810117780003566,3408,6449,0
1.884032851000029,2048,2416,0
1.887862977000168,10034,3168,0
1.891663527000219,208,3872,0
1.8949956820001717,6497,2640,0
1.898916933000237,4865,1792,0
1.90188144800004,736,2224,0
1.9059034230003817,992,1936,0
1.90901784100015,7681,4705,0
1.9119580260003204,528,4113,0
1.9157450350003273,4753,2720,0
1.9196695499999805,2656,2048,0
1.9228204390001338,1632,1552,0
1.926735600000029,1552,2032,0
1.929819573000259,4177,2528,0
1.9337564140000723,3152,3984,0
1.9369299640002282,5937,2768,0
1.940762411000378,2496,768,0
1.943735967000066,1728,1760,0
1.9476371760001712,2848,2208,0
1.950686935000249,1136,2144,0
1.954612009000357,4385,3360,0
1.9576017590002266,5121,2144,0
1.9618521639999926,256,6161,0
1.9649246280000625,192,1968,0
1.9688725410001098,5217,2272,0
1.9718797900000027,0,2400,0
1.975805584000227,2528,2656,0
1.978866317000211,4097,1792,0
1.9828631600003064,608,1632,0
1.9858929150000222,208,1296,0
1.9898124040000766,3872,2656,0
1.9928955700002007,2272,3744,0
1.9967549060002057,2560,1584,0
1.9998745200000485,2480,2304,0
2.0037219490000098,48,1632,0
2.006786698000269,3584,2048,0
2.0108605990003525,3376,2608,0
2.0138193840002714,2864,2704,0
2.0179333549999683,8097,2096,0
2.020861992000391,1888,768,0
2.02495576299998,1024,3120,0
2.0281079070000487,3744,2560,0
2.031902683000226,1024,4113,0
2.0351213500002814,4353,2304,0
2.038901504000023,7121,1792,0
2.041957838000144,1040,1392,0
2.0458661890002077,512,9362,0
2.049099586000011,5521,2128,0
2.052805414999966,1504,3872,0
2.056086864000008,3376,1632,0
2.0598890510000274,8274,4801,0
2.062985447000301,0,1696,0
2.066887658000269,1280,256,0
2.069999191000079,4369,4529,0
2.0739071740003965,1216,4016,0
2.0770177389999844,7105,2816,0
2.0810312130001876,2768,768,0
2.0841107410001314,6465,4353,0
2.087909757000034,5297,3168,0
2.0909873400000833,1040,592,0
2.095013348000066,5121,3472,0
2.098123882999971,6993,2800,0
2.1019269660000646,1184,6401,0
2.1048991990001014,0,1280,0
2.108968931000163,5841,2272,0
2.1120896400002493,384,3552,0
2.1159243710003466,2784,1120,0
2.1190980940000372,5425,2304,0
2.1229627249999794,288,256,0
2.126058875000126,1552,2400,0
2.130011179000121,6145,2928,0
2.1329886150001585,1808,2864,0
2.136912491000203,4657,2912,0
2.1400109569999586,3584,2160,0
2.1437897860000703,864,2048,0
2.147084859000188,2368,3248,0
2.15100796500019,1952,4833,0
2.1540540580003835,4865,3328,0
2.1580222500001582,9506,2272,0
2.1610998710002605,0,1024,0
2.1650065840003663,752,1712,0
2.1680561289999787,5489,2464,0
2.1719144220001,384,4097,0
2.1751127510001425,5809,3920,0
2.1789991020000343,2304,3696,0
2.182090285999948,944,1440,0
2.1859827580001365,1360,1168,0
2.1890775930000927,5121,5121,0
2.192830270000286,352,3600,0
2.195953835000182,2352,2672,0
2.2000499560003846,3904,1712,0
2.2031016470000395,512,1600,0
2.2059958889999507,0,1792,0
2.2097966970000016,9186,5521,0
2.2129098939999494,2800,3536,0
2.216863836000357,4289,3840,0
2.219945372999973,2064,784,0
2.2238491770003748,3936,3376,0
2.227694356000029,2656,1792,0
2.230800371999976,2032,4000,0
2.2347114960002727,4016,2880,0
2.237710301000334,6913,1968,0
2.2416304130001663,1632,1184,0
2.2446437070002503,32,1568,0
2.2485818500003916,5441,2000,0
2.2516275020002467,736,3872,0
2.255829157000335,2080,1248,0
2.258887863000382,2912,2192,0
2.26277096900003,880,1040,0
2.265805575000286,2080,1760,0
2.2697875610001574,3360,2096,0
2.272787944000356,2368,4417,0
2.276716258000306,4577,1344,0
2.279917573000148,2672,1568,0
2.282660850999946,0,768,0
2.2868042970003444,6241,5345,0
2.2906320590000178,1456,3280,0
2.2936668530001043,4000,3168,0
2.297841329000221,7089,2832,0
2.3009027990001414,1280,928,0
2.303772764000314,672,1600,0
2.3079532960000506,6113,4593,0
2.311913308000385,1024,4161,0
2.3149483460001647,4353,3216,0
2.3189757750001263,4369,1536,0
2.322099557999991,1200,2400,0
2.325158902000112,0,3328,0
2.329037750000225,11698,4865,0
2.3329953400002523,1440,3728,0
2.336098968999977,1872,1456,0
2.340064472999984,1616,1952,0
2.3431094259999554,1168,2160,0
2.346847069999967,2144,2064,0
2.349965680999958,4273,3024,0
2.3536137030000646,2720,3504,0
2.3568399440000576,6513,2416,0
2.360668934000387,2240,736,784
2.3637028810003358,768,1712,0
2.367653941000299,3424,5361,0
2.371602277999955,1872,1296,0
2.374652386999969,5121,3296,0
2.3786061570003767,6145,2048,0
2.3815917080000872,2160,1600,0
2.3855411849999655,1680,2288,0
2.388656710000305,4945,4016,0
2.3916817760000413,0,3088,0
2.395630894000078,6897,4353,0
2.3995934470003704,4545,1120,0
2.4026129740000215,1952,2016,0
2.4065974070003904,1360,1296,0
2.409646547000193,4321,2720,0
2.4136103539999567,2512,3104,0
2.416657428000235,4609,2720,0
2.4206230849999884,1792,1280,0
2.4236218660003033,48,1936,0
2.4275818910000453,3984,2224,0
2.4306459190001988,768,3664,0
2.4346067910000784,2608,2016,0
2.437673478000306,6817,2768,0
2.44160772000032,560,1136,0
2.444621947000087,1024,1360,0
2.448585302000083,6401,1904,0
2.451634068000203,0,3040,0
2.455591471000389,3264,2352,0
2.4586435810001603,5665,3856,0
2.4616547160003392,0,1232,0
2.465557722000085,592,3232,0
2.4686084190002475,5073,2592,0
2.472593548000077,1216,3664,0
2.4755915280002228,2016,1584,0
2.4795871559999796,2720,8450,0
2.482581228000072,336,768,0
2.486526672000309,1296,3840,0
2.48961648400018,3072,3072,0
2.493598961000316,3376,3328,0
2.49662461600019,7585,2160,0
2.5005935460003457,2144,5345,0
2.503578019000088,0,1040,0
2.507560897000076,3552,2480,0
2.510607156000333,1120,4177,0
2.514585843000077,5617,4353,0
2.517614515000332,6945,1888,0
2.5215898640003616,1840,8354,0
2.524615336000352,0,1744,0
2.528591121000318,5393,1840,0
2.5316365710000355,448,5041,0
2.535619630000383,2576,2160,0
2.538650942000004,2752,1872,0
2.5416608460000134,752,0,0
2.545635837000191,7329,3408,0
2.5496189460000096,3872,2720,0
2.5526371240002845,2736,3696,0
2.5566234530001566,3424,1792,0
2.559610973999952,2528,2320,0
2.5636054460001105,768,2160,0
2.566678275999948,2704,2288,0
2.5707142960000056,1280,4449,0
2.5736069690001386,2096,3504,0
2.5778619350003282,8450,2992,0
2.5808494670000073,1984,1696,0
2.584981534000235,592,1696,0
2.5878958360003708,4337,2272,0
2.5918551390000175,0,5361,0
2.5946136160000606,3888,2064,0
2.59860324400006,4529,1456,0
2.601647933000095,1632,1680,0
2.6055980180003644,2400,2096,0
2.608651757000189,8802,2816,0
2.6126237290000063,1072,4097,0
2.61565029600024,3120,2272,0
2.619615444000374,1952,1856,0
2.622630787000162,688,864,0
2.626597865000349,2496,3232,0
2.629647684000247,3552,4353,0
2.6336305250001715,1952,3712,0
2.6365818780000154,6401,3248,0
2.6405889900001966,2512,992,0
2.6436511280003288,0,1376,0
2.64789081500021,2976,2512,0
2.650906042000315,2128,2368,0
2.6548410970003715,4961,2848,0
2.6579640930003734,6481,2544,0
2.6616612430002533,464,1296,0
2.664954446000138,1024,1808,0
2.6688491960003375,5601,2064,0
2.6719335080001656,448,3328,0
2.675848669000061,4529,2304,0
2.67887279200022,2656,1760,0
2.6829032050000023,688,1024,0
2.685941388000174,544,1424,0
2.6898318080002355,3968,2864,0
2.692913790000148,2768,3072,0
2.696814334999999,2464,1520,0
2.6997556710002755,1712,1632,0
2.7038879360002284,0,1040,0
2.706900871000016,4145,1392,0
2.71094875100016,3408,3280,0
2.7140607800001817,4865,2832,0
2.7178739420000966,8626,3056,0
2.7210010850003528,880,1072,0
2.724741859000005,256,2000,0
2.728115760000037,4785,1504,0
2.7311041320003824,0,3328,0
2.7350557320000917,7329,5025,0
2.7379702470002485,6593,2992,0
2.7418787510000584,2928,3184,0
2.7449209420001353,992,1344,0
2.7488485809999474,7921,4369,0
2.7519318640001984,384,4353,0
2.755830098000388,6353,4449,0
2.7597795430001497,3584,2000,0
2.7629072320000887,2128,2576,0
2.7668747890002123,1280,2272,0
2.7698820529999466,5361,2432,0
2.773784208000052,1504,1616,0
2.7768847060001463,6401,2176,0
2.7807666900002914,784,1008,0
2.783871239000291,0,544,0
2.786934898000254,3600,1632,0
2.7908369460001268,1360,8113,0
2.793819729000006,3488,2576,0
2.7976736280002115,7137,4113,0
2.8007514900000388,1280,768,0
2.804673969000305,4977,3936,0
2.8086259300002894,5121,2080,0
2.811660060000122,2592,4513,0
2.815625184000055,3040,2256,0
2.818595591000303,3888,2048,0
2.821699706000345,0,1296,0
2.8256320190002953,912,9986,0
2.828668583000308,5793,2256,0
2.8326300300000185,1808,7377,0
2.8358940100001746,3168,1936,0
2.8399085270002615,4881,3584,0
2.8430090140000175,0,928,0
2.846861075000106,1824,1184,0
2.849888851000287,2496,2816,0
2.8539649730000747,3024,4625,0
2.856911092000246,5889,2608,0
2.86088815300036,2304,7617,0
2.8639003520002007,0,1248,0
2.8678572050002913,5073,1232,0
2.8708227690003696,1040,3024,0
2.874898984000083,2384,2304,0
2.877958237000257,5169,2128,0
2.881836798000222,1600,1280,0
2.8847953240001516,0,2736,0
2.8888356600000407,6273,1536,0
2.8919586320002963,976,3296,0
2.8959601340002337,1840,864,0
2.8991175650003242,7009,2336,0
2.9020821690000957,0,1984,0
2.906023950999952,256,6433,0
2.9091291419999834,4833,1968,0
2.913045510000302,880,3040,0
2.9160998199999995,2544,1488,0
2.919972460000281,5441,1488,16
2.9229559909999807,784,1840,0
2.92693325800019,2048,5409,0
2.9301925620002294,2064,2480,0
2.93390732700027,5201,5009,0
2.9377988360001837,7889,2544,0
2.940978369000277,2640,1872,0
2.9440292670001327,0,1264,0
2.9480788089999805,4433,1792,0
2.9510086140003295,0,3888,0
2.955018174000088,2608,2464,0
2.9581298610000886,6033,2256,0
2.9619469020003635,1376,1136,0
2.9651081900001373,0,2048,0
2.969051722000131,5489,2752,0
2.972125154999958,1520,3696,0
2.975913158000367,2736,1520,0
2.9791427660002228,2400,560,0
2.982052465000379,496,928,0
2.985893007999948,4641,4177,0
2.989864862000104,3840,3552,0
2.993082317000244,480,3328,0
2.9968682480002826,1952,1520,0
3.0000163460003932,2464,2032,0
3.0032990660001815,0,1216,0
3.0070097000002534,2512,6641,0
3.010033689000011,6561,3440,0
3.0140657710003325,6401,4913,0
3.0179723119999835,6865,2048,0
3.020999741000196,5009,2464,0
3.0242180889999872,928,1792,0
3.027965412999947,6385,3248,0
3.032002677000037,1184,5809,0
3.0349531080000816,3616,3840,0
3.0390005920003205,4385,208,0
3.0419888310002534,2720,1520,0
3.045963647999997,864,1904,0
3.049120521000077,5249,3984,0
3.052893040000072,1488,3328,0
3.0561357179999504,2816,1888,0
3.059942384000351,3072,2400,0
3.062978531000226,0,1280,0
3.0659613640000316,256,1440,0
3.0698908610002036,3312,6897,0
3.072944982000081,1328,3856,0
3.0768551520000074,6353,3584,0
3.0807801400001154,1792,1968,0
3.0838697140002296,624,1488,0
3.0877560850003647,2992,1712,0
3.090975152000283,2144,3424,0
3.094697111000187,2336,2928,0
3.097707890000038,6705,3424,0
3.1016908470001,2096,1456,0
3.104685855000298,0,1776,0
3.1087922159999835,6577,2640,0
3.111797466000098,4577,3600,0
3.1159010450001006,3072,2384,0
3.1188166260003527,3664,2816,0
3.1218770600003154,0,784,0
3.124956576000386,0,528,0
3.128807374000189,9586,4353,0
3.1319127800002207,0,2560,0
3.1358140270003787,4337,2256,0
3.138887034000163,3152,3520,0
3.1429177250001885,2048,7857,0
3.1459155120001014,1184,2096,0
3.149926116000188,4064,5409,0
3.153785244000119,4513,4000,0
3.1568281869999737,5121,2672,0
3.160644417000185,1520,1616,0
3.163957204000326,1360,1776,0
3.167836565000016,3184,1968,0
3.1708499410001423,2512,3056,0
3.1750302410000586,2896,3376,0
3.1779399130000456,4465,2064,0
3.1818526300003214,768,480,0
3.1849853940002504,1360,2048,0
3.188923767000233,4865,3984,0
3.1921535169999515,896,3232,0
3.1960621220000576,3936,2864,0
3.1989600960000644,5121,1792,0
3.202162481999949,0,256,0
3.2060172510000484,0,7537,0
3.2091552220003905,5441,2256,0
3.213113266000164,384,3248,0
3.216165643000295,2704,1328,0
3.219925123000394,2384,832,0
3.222986136000145,80,256,0
3.2259831999999733,1536,1456,0
3.230053902000236,6481,3808,0
3.2338756890003424,2080,2800,0
3.2369489600000634,4769,2768,0
3.2408498200002214,2816,1392,0
3.2439824010002667,480,1440,0
3.2479305970000496,4401,2528,0
3.251154279000275,1952,3024,0
3.2548349180001424,2800,1264,0
3.258037687000069,5601,2528,0
3.2620556850001776,16,1024,0
3.264959769000143,2544,1296,0
3.2689502390003327,5905,2080,0
3.2720245440000326,336,3664,0
3.2759033560000717,2800,1872,0
3.279009046000283,4097,2544,0
3.2821400300003916,0,1504,0
3.285950184000285,4961,5169,0
3.2898589670003275,3840,3248,0
3.2929647129999466,2400,3088,0
3.296900593000373,2128,2256,0
3.300031310000122,2528,2512,0
3.303838182000163,96,1344,0
3.307045107000249,4465,2720,0
3.310910432000128,2800,3472,0
3.313933220000308,3792,3328,0
3.317930933000298,7601,1648,0
3.320959237000352,1872,2320,0
3.3247712280003725,768,1968,0
3.327926017000209,4881,1696,0
3.330862549000358,0,3632,0
3.334906508000131,6113,4113,0
3.3390024380000796,6913,3120,0
3.342034177000187,3280,2592,0
3.345214421000037,0,2656,0
3.349113265000142,3888,3056,0
3.3519799790001343,0,2816,0
3.35605262900026,2608,2464,0
3.3589869580000595,3888,1328,0
3.3628618130001087,1056,1280,0
3.3659248769999977,64,2224,0
3.3698276899999655,5041,2816,0
3.372884157000044,0,1072,0
3.3759886550001283,1568,1504,0
3.3799420540003666,4625,4209,0
3.382967875000304,304,2160,0
3.3868482980001318,8898,4785,0
3.3907282600002873,3120,2704,0
3.393716218999998,3360,3888,0
3.3976583270000447,6977,2192,0
3.4007197580003776,2608,2768,0
3.4049514370003635,1024,2208,0
3.4079989490001026,3440,4465,0
3.411780707000162,1024,4097,0
3.414990787000079,2912,3104,0
3.418932796000263,6561,1696,0
3.42170042700036,0,1648,0
3.424999881000076,0,1232,0
3.4289629190002415,4369,7425,0
3.431715541000358,0,1792,0
3.435940359000142,2256,1872,0
3.4388220210003055,3632,1872,0
3.4429248390001703,256,176,0
3.4459814320002806,2016,2208,0
3.449779922000289,5377,2304,0
3.452867059000255,1632,3024,0
3.456939846000296,1760,1984,0
3.4600361630000407,2240,1792,0
3.4640160740000283,1312,1264,0
3.4670721669999693,5857,1024,0
3.470935603000271,816,5569,0
3.474004196000351,2000,4577,0
3.4780928970003515,9186,256,0
3.4810494810003547,816,1200,0
3.4850940149999587,176,896,0
3.488042942999982,4561,2048,0
3.491846268000245,32,4016,0
3.495142546000352,5297,3264,0
3.4990430200000446,4273,1440,0
3.502175551000164,2000,1376,0
3.5059039470002062,624,2800,0
3.5091591620002873,6529,2736,0
3.513018425000155,592,2608,0
3.5160558960001254,2160,3312,0
3.5198899219999475,3888,1888,0
3.522982082999988,0,880,0
3.52620426600015,2048,464,0
3.530007384000328,3232,3760,0
3.5331526820000363,1184,3648,0
3.537000989000262,5745,7649,0
3.540151014999992,2320,1744,0
3.5440078970000286,368,4113,0
3.547124920999977,4625,1776,0
3.550903243999983,2032,6161,0
3.555042335000053,3648,2592,0
3.5580252050003764,7857,2304,0
3.5612278930002503,0,1360,0
3.565107616000205,1632,1504,0
3.568205324000246,4865,2400,0
3.5719511330003115,0,8450,0
3.5751425290000043,3856,2816,0
3.578942544000256,4865,1456,0
3.5820069540000077,0,1488,0
3.585888346000047,1024,1792,0
3.589049898000212,6113,2608,0
3.5921724060003726,0,3280,0
3.5960301660002187,3328,8946,0
3.59914464700023,3696,1280,0
3.603093591000288,5585,3360,0
3.6062272510002913,1536,1568,0
3.6100252420001198,5905,3280,0
3.6139112850000856,2064,2560,0
3.6170309690000977,5777,1856,0
3.621091338000042,3120,1792,0
3.624012760000369,576,1232,0
3.627947334000055,3376,1696,0
3.631178779000038,1024,3552,0
3.635022428999946,1648,1904,0
3.638003554000079,4993,1792,0
3.642093378000027,1664,384,0
3.645016283000132,1952,2416,0
3.648945427000399,7617,2640,0
3.652194356000109,992,3280,0
3.6558718760002193,3760,2800,0
3.6589136689999577,5169,2352,0
3.66284084300014,656,912,0
3.665880245000153,1184,1312,0
3.6698669770003107,3632,2816,0
3.672943219999979,336,3472,0
3.6768610020003507,2688,1584,0
3.6799938150002163,1536,2512,0
3.6837771440000324,1008,880,0
3.6867788750000727,4209,2448,0
3.6906793040002412,1680,5201,0
3.6937179810001908,3568,3072,0
3.697670265000397,8274,2464,0
3.700775055000122,1280,2064,0
3.7049201150002773,1264,7169,0
3.707797187000324,5009,2736,0
3.711933951999981,6129,3344,0
3.7159385520003525,3168,2672,0
3.71888697400027,6145,2576,0
3.721917647000282,544,688,0
3.7259673480002675,1456,5873,0
3.729016453999975,4273,3296,0
3.7329129610002383,4177,3824,0
3.73584999600007,784,800,0
3.7400026929999513,4817,8081,0
3.742977203999999,0,800,0
3.746905857999991,1568,1104,0
3.7500501210001858,4609,2992,0
3.753867967000133,4273,4257,0
3.7570043480000095,4865,2336,0
3.7610114890003388,2048,944,0
3.7642005380002956,1136,1024,0
3.7681142680003177,3168,2608,0
3.771078514000237,768,2528,0
3.7749663560002773,4129,2976,0
3.778041382000083,7201,1280,0
3.7820933120001428,2304,1712,0
3.7852565870002763,1328,2096,0
3.789124238000113,5281,7169,0
3.792162159000327,0,3584,0
3.7960087810001824,1872,1904,0
3.7990470540003116,2816,1296,0
3.8022434350000367,0,736,0
3.8059873270003663,5681,3920,0
3.809927291000349,5185,3472,0
3.813185732999955,3296,4689,0
3.8168179809999856,4625,2944,0
3.8201070220002293,2224,1920,0
3.8239866060002896,224,1296,0
3.827048444999946,5697,2368,0
3.8308647950002523,2624,2992,0
3.8339671210001143,2464,3168,0
3.8377008180000303,7217,2112,0
3.8407223590002104,2208,1440,0
3.8438888949999637,0,944,0
3.8478529470003195,9842,4048,0
3.85098652600027,720,2288,0
3.8548352070001783,2816,5649,0
3.85885209900016,7585,2464,0
3.861995047000164,2656,1584,0
3.8658634470002653,432,2208,0
3.8689092900003743,5441,4561,0
3.872858465000263,1184,3424,0
3.875920445000247,2400,3040,0
3.879854952000187,4097,2128,0
3.882939708000322,912,1632,0
3.8868887630001154,976,1184,0
3.890003180000349,5041,3920,0
3.893964091000271,1904,3120,0
3.8970517640000253,4929,2304,0
3.9010857960001886,2240,1776,0
3.904022800000348,1120,1328,0
3.9081129710002642,2480,2256,0
3.911186333000387,1280,3824,0
3.915137708000202,3072,3328,0
3.918243910000001,5889,1312,0
3.922022178000134,1280,4641,0
3.925091172000066,1552,560,0
3.929162753000128,6481,2960,0
3.93205375000025,336,2800,0
3.9361909650001508,3712,896,0
3.939179057000274,3808,2160,0
3.942981370000325,768,480,0
3.9461922049999885,864,1488,0
3.94995272999995,5873,1232,0
3.952998733000186,2816,4881,0
3.9568103780002275,2816,1280,0
3.9599860780003837,2816,1984,0
3.963756420000209,48,832,0
3.9668950730001598,4705,2352,0
3.9708156470001086,2816,2720,0
3.973904247000064,1456,3200,0
3.9777260979999483,8065,2304,0
3.9808246990000953,1536,1424,0
3.984765511000205,1248,1696,0
3.987769773000309,4273,1744,0
3.9917121960002078,0,4177,0
3.9949887420002597,6001,3072,0
3.998969218000184,5073,1376,0
4.001920732000144,0,2304,0
4.004912629000046,1280,2576,0
4.0090097370002695,11458,3152,0
4.0128759700000955,352,3776,0
4.015980792000391,4321,2608,0
4.019759855000302,3344,2816,0
4.022949424000217,432,1232,0
4.026882135000051,1440,2816,0
4.02990975900002,3744,3216,0
4.0339254400000755,4000,3488,0
4.0368056629999955,5681,3072,0
4.040868775000035,2400,1200,0
4.04380852300028,496,1056,0
4.047981234999952,2528,2032,0
4.050933499000166,1360,3280,0
4.05495143600001,4689,3280,0
4.058415243000127,5329,992,0
4.061920971000291,1280,944,0
4.065166354000212,256,1280,0
4.06893122800011,4641,2080,0
4.072044485000333,1440,2912,0
4.0760059940002975,1744,1168,0
4.079109800999959,4657,2240,0
4.0830108590002965,1104,2048,0
4.08616950600026,1136,1552,0
4.0901080380003805,3552,8177,0
4.093309678999958,2048,2256,0
4.097075313000005,7585,3584,0
4.1010437370000545,2304,1184,0
4.10417902800009,1792,2304,0
4.10811343100022,3280,2448,0
4.110956788000294,1632,3680,0
4.115109727000345,2784,2464,0
4.118191046999982,4369,1152,0
4.122053868999956,976,752,0
4.125092594000307,1280,2048,0
4.129000109000117,5121,2416,0
4.132144227000026,0,2128,0
4.135263322000355,4721,2304,0
4.13901739100038,7937,3440,0
4.14226823800027,1280,768,0
4.146188873000028,3936,4769,0
4.149871215000076,9586,1824,0
4.15306005299999,4625,4993,0
4.156924720999996,3344,2048,0
4.1600989450003,4545,2352,0
4.163136420000228,48,2016,0
4.167053782000039,4641,3728,0
4.170866046000356,2576,3248,0
4.174079747000178,5553,3744,0
4.177957242000048,6817,2048,0
4.1811998749999475,2000,1776,0
4.184230198000023,0,752,0
4.188153480999972,2800,6289,0
4.191226020000158,912,3328,0
4.195050344000265,7169,3328,0
4.198197580000397,4785,720,0
4.202160173000266,1280,1488,512
4.2058709920002,1072,1584,0
4.209055962000093,7409,1312,0
4.212891621000381,416,3504,0
4.216162154000358,3664,3856,0
4.219964208999954,4561,1376,0
4.22293417200035,0,1040,0
4.226072872000259,688,3328,0
4.230064232000132,3328,9826,0
4.233277016000102,2160,2288,0
4.237024181000379,2304,4593,0
4.240956388000086,2624,1760,0
4.243944628999998,2960,2304,0
4.247848125000019,1776,1952,0
4.250981290000254,1312,3184,0
4.254903604999981,3744,2928,0
4.257956688000377,6257,1968,0
4.261802065000211,528,928,0
4.264965996000228,2096,1824,0
4.268884842000261,6145,2272,0
4.271913814000072,688,2864,0
4.275790402999974,3232,2576,0
4.278794191000088,4593,3328,0
4.281837605999954,0,1088,0
4.285760460000347,5185,3232,0
4.289752962999955,6705,1568,0
4.292739499000163,3008,4161,0
4.296695973000169,2816,1568,0
4.299738617000003,4129,1744,0
4.303742368000258,496,1232,0
4.306702576000134,4145,2464,0
4.310723421000148,3008,4257,0
4.313752087000012,1808,2656,0
4.317664223000065,8097,2448,0
4.320766900000308,1712,1696,0
4.3247242350003035,256,1328,0
4.327736396000091,3696,2816,0
4.330753146999996,0,3920,0
4.334717627000373,5265,3776,0
4.338651033000133,4961,2304,0
4.341719827000361,816,2048,0
4.34567624400006,1152,1712,0
4.348751656000331,8145,2096,0
4.352671666000333,288,2880,0
4.355747039000107,3072,3568,0
4.35969133000026,4177,2400,0
4.362752905999969,1584,2144,0
4.3667085390002285,1744,1520,0
4.3697633540000425,4625,3232,0
4.372778280000148,0,2512,0
4.376719507999951,5489,1488,0
4.380649530000028,3328,2608,0
4.383712054000171,832,1776,0
4.3867339930002345,3408,768,0
4.390712940999947,6145,5057,0
4.394686094000008,2400,3120,0
4.397712627000146,7409,2672,0
4.401687600000059,1024,1712,0
4.40473722500019,2144,1360,0
4.408963958000186,4833,2608,0
4.411983128999964,0,4097,0
4.415954244000204,4465,2016,0
4.418980668000131,4689,2480,0
4.4220046310001635,0,2048,0
4.4259773710000445,1088,1568,0
4.429065518000243,7185,3888,0
4.43298289600034,2144,8498,0
4.435870809000335,2704,1536,0
4.439921851000236,6193,4016,0
4.442978277000293,768,2016,0
4.446856779999962,4849,3088,0
4.450728114999947,3312,3568,0
4.453750137000043,6001,3328,0
4.457746820000011,6353,2816,0
4.460789941000257,1616,1760,0
4.463819911999963,928,976,0
4.467781197000022,6401,3072,0
4.4717344220002815,1360,2384,0
4.474785610000254,3680,1616,0
4.478732603000026,5665,1280,0
4.481735851000394,816,2240,0
4.485695234000104,624,1872,0
4.488746431999971,7953,3840,0
4.492735651000203,1216,3984,0
4.495707047999986,1440,976,0
4.499713835999955,3712,2464,0
4.5027322529999765,1072,1504,0
4.506686714000352,848,1344,0
4.509744370000135,2912,4353,0
4.513728117000028,1568,2528,0
4.516724872000395,5201,1840,0
4.5207401150000806,3840,2064,0
4.523742341000343,272,1024,0
4.527728574000321,6113,2336,0
4.530734473000393,0,3152,0
4.53472328800035,2784,2400,0
4.537719061000189,6145,2576,0
4.541657177000161,1024,768,0
4.544714781000039,2800,2304,0
4.548722454000199,4625,2400,0
4.551739721000104,256,4177,0
4.555977401000291,2832,1840,0
4.55906276900032,4593,2192,0
4.5630123750001985,352,1552,0
4.566016531000059,928,2768,0
4.569987238000067,2800,2144,0
4.573000480000246,2976,3424,0
4.576907944000141,2304,768,0
4.580003519999991,3936,2960,0
4.582962908000354,0,912,0
4.58694081800013,2400,2240,0
4.590060208000068,3840,3728,0
4.594009228000232,3440,3392,0
4.59694184800037,5681,1872,0
4.600931493000189,2608,7265,0
4.604038146000221,0,1568,0
4.608012677000261,5153,2736,0
4.6109651520000625,96,3888,0
4.615064683000128,3984,2448,0
4.618231521000325,6097,1760,0
4.622005878999971,1120,1088,0
4.624953737000396,0,1344,0
4.629052785000113,4289,1792,0
4.632185402000232,2544,3696,0
4.635957852000047,2576,2672,0
4.63903041399999,4849,1056,0
4.64220709700021,0,1280,0
4.6461995900003785,6417,6097,0
4.649144672000148,4337,2224,0
4.653028876999997,4145,5009,0
4.656296279000344,1280,256,0
4.660141757000019,5825,3568,0
4.663089937000223,512,704,0
4.666880364999997,4193,7425,0
4.670063352000398,4977,2816,0
4.674047196000174,5889,4561,0
4.677882715000123,5905,2032,0
4.681219850000161,3424,2656,0
4.684245888000078,0,1104,0
4.68818433100023,1984,1328,0
4.691252996999992,3056,4257,0
4.6951723090001,4929,7441,0
4.6982958520002285,5873,2304,0
4.702090984000279,4529,3280,0
4.705127092000112,0,2544,0
4.709171479000361,3600,2224,0
4.712113526000394,256,3040,0
4.7161359560000164,2576,1296,0
4.7190831330003675,3840,976,0
4.72302808700033,832,1200,0
4.726093714000399,1824,2048,0
4.730063068000163,3152,3264,0
4.733106166000198,1456,3792,0
4.7369574600002124,5937,3408,0
4.7402320860001055,1168,2688,0
4.744058431000212,752,4625,0
4.747050531000241,3312,2256,0
4.750988257000245,656,9474,0
4.754245727000125,2304,3056,0
4.758178679000139,7905,7265,0
4.761278273000244,2304,832,0
4.765182420000201,1776,2304,0
4.768261906000134,2160,3808,0
4.772110201000032,0,5137,0
4.775187809000272,3280,3024,0
4.779718734000198,5169,1600,0
4.782109523000145,16,1280,0
4.7859424070002206,1312,1584,0
4.789017170000079,6353,2720,0
4.792926961000376,1120,3840,0
4.7960155570003735,4273,1136,0
4.799968841999998,4289,2032,0
4.803017507000277,624,1296,0
4.806882322000092,1744,928,0
4.809984712000187,5377,3696,0
4.8137471860000005,0,2208,0
4.816846234999957,8113,4000,0
4.820738195000104,2320,928,0
4.823797523000394,3088,2416,0
4.82775186400022,3824,1824,0
4.830757814000208,1568,3632,0
4.834769578000305,2224,2400,0
4.837815517000308,6641,1584,0
4.840822953000043,0,1104,0
4.844799723000051,3760,2208,0
4.848786193000251,3328,2704,0
4.851726367000083,2128,3728,0
4.855812939000316,3328,1696,0
4.858686601000045,4865,2144,0
4.861814364000111,0,1504,0
4.86579037599995,6913,4369,0
4.8697400240002935,5121,2624,0
4.87279407799997,3664,4289,0
4.876740080000218,2304,1136,0
4.879769443999976,4080,3088,0
4.882813990000159,0,1296,0
4.886725815000318,624,4913,0
4.88980732400023,2048,3408,0
4.893806988000051,1792,7441,0
4.8967408270000305,8466,2416,0
4.900691573000131,4817,3264,0
4.9037177810000685,752,992,0
4.9077429779999875,2640,8049,0
4.910783329999958,864,3920,0
4.915008621000197,3840,3616,0
4.91806507299998,7025,1248,0
4.9220081920002485,864,7217,0
4.925103935000152,256,768,0
4.929017360000216,4865,3680,0
4.932070484000178,400,3264,0
4.935726463000265,3248,2928,0
4.9390842890002205,3072,1600,0
4.942952923000121,1024,736,0
4.946037277999949,256,768,0
4.949926663000042,4129,3232,0
4.9530306980000205,2048,2896,0
4.956905633000133,2640,1632,0
4.959989829000278,2736,1856,0
4.9640550240001176,496,1504,0
4.966889196000011,3072,1664,0
4.971007419000216,2752,4977,0
4.974256860999958,3616,3840,0
4.978189242000099,9826,2160,0
4.981171390000327,1200,1296,0
4.985071345000051,1264,5441,0
4.988319645000047,4129,2736,0
4.9920699320000494,4481,6289,0
4.996145323000292,3728,2240,0
4.9992309960002785,5105,3024,0
5.002954515000056,576,1552,0
5.006197550000252,3376,3008,0
5.009988809000333,3216,3440,0
5.013061628000287,2064,3616,0
5.016939146000368,1456,1280,0
5.020097681000152,3568,1792,0
5.024082677000024,528,1472,0
5.0269761130002735,2816,2480,0
5.031077138000001,4433,3328,0
5.0341375920002065,2672,3328,0
5.038160834000337,9138,3552,0
5.041165482999986,1344,1024,0
5.045172045000072,960,1360,0
5.048284680000052,3920,1296,0
5.052057421999962,112,3456,0
5.055245313000341,3936,3232,0
5.05901136600005,5009,1824,0
5.062257638000119,0,1648,0
5.0661415090003175,1216,2640,0
5.069077287000255,4241,2656,0
5.073168872000224,1488,3696,0
5.076127931999963,3104,1952,0
5.080058103000283,3920,1792,0
5.083142918000249,336,1024,0
5.086874411000281,1264,256,0
5.090090905000125,3360,2304,0
5.093898312999954,2080,4353,0
5.0969771330001095,5377,1328,0
5.100877004000267,1328,736,0
5.1040322700000615,0,784,0
5.107141736000358,3552,2912,0
5.111036959000103,6849,3728,0
5.114862178000294,3216,3312,0
5.117854167000132,7713,2128,0
5.1217986550000205,1296,928,0
5.124848103000204,1872,1760,0
5.128951979000249,4337,2288,0
5.132000493000305,2000,3232,0
5.135996375000104,5569,2816,0
5.13901020000003,4145,1728,0
5.142982234000101,48,976,0
5.145983446000173,3888,3328,0
5.149909516000207,4385,3536,0
5.153000699000131,2992,3040,0
5.15696609700035,2784,1232,0
5.159983179000392,3712,1904,0
5.163076730000284,0,768,0
5.1669516130000375,2624,8866,0
5.170095443000264,2208,2992,0
5.173992455000189,5153,4721,0
5.178017530000034,7617,2464,0
5.181109154000296,5889,4129,0
5.185004092000327,1392,1792,0
5.188266800000292,4593,2464,0
5.192182951000177,1024,3552,0
5.195126147000337,4513,1744,0
5.199187768000229,4561,1616,0
5.2021956319999845,432,1024,0
5.206025588000102,1216,2048,0
5.209278660000109,4625,2816,0
5.213163736000297,384,3584,0
5.216042910000397,3248,992,0
5.220082261000243,4337,1136,0
5.223121524000362,1968,1392,0
5.2270034890002535,480,2352,0
5.230146401000184,4705,3616,0
5.234009698000136,784,1808,0
5.23707572100011,4305,2816,0
5.241098565000357,4064,1040,0
5.244091972000206,624,960,0
5.248135935000391,2352,992,0
5.251148544999978,4113,3952,0
5.254992227999992,1952,3904,0
5.258288055000321,8882,1552,0
5.26218781300031,2928,1488,0
5.2651387240002805,2304,1520,0
5.269038303000343,4032,3024,0
5.272256699000081,3328,3696,0
5.2760258160001285,3616,1616,0
5.279086096000356,8466,2192,0
5.28309022600024,2496,6561,0
5.286282303999997,1584,1872,0
5.290118316000189,256,4657,0
5.293206749000092,1984,3328,0
5.296945192000294,5681,6753,0
5.300192186000004,4657,1504,0
5.304121591000239,3248,1952,0
5.308019156000228,6193,1280,0
5.311275551000108,4641,2928,0
5.315041283000028,4865,2144,0
5.318112535000182,2720,864,0
5.322132237999995,4881,768,0
5.325111526000001,26534,1968,0
5.329070377000335,24117,784,0
5.332285700000284,30983,3440,0
5.336049123000066,14339,2048,0
5.33932437600015,3536,1984,0
5.343066852999982,24325,2608,0
5.346863721000318,4129,1136,0
5.350106678999964,1072,3440,0
5.354051159000392,8530,1968,0
5.3570785639999485,3088,2304,0
5.361204171000281,34888,544,0
5.364197617000173,14115,1024,0
5.368252649000169,2864,5745,0
5.3720116190002045,8482,2816,0
5.375088559000233,4865,2496,0
5.378956982000091,6657,1536,0
5.3820764030001556,65535,1792,0
5.386066153000229,36969,1808,0
5.389118755000254,65535,1872,0
5.393062721000206,16484,5921,0
5.396936704000382,9266,2480,256
5.400191295000241,2848,4961,0
5.403991343000143,5969,816,0
5.407035514000199,14595,2400,0
5.410946915000295,10754,2752,0
5.4148391660000925,2256,4689,0
5.417867827000009,19716,3520,1632
5.421894717000214,4689,6433,4785
5.42608267300011,3104,1872,768
5.430102054000145,18676,1776,416
5.4328212090003944,18148,2928,0
5.436902683999961,9202,480,0
5.439941983000153,9698,1280,0
5.443808550000085,7633,1280,0
5.446886627000367,5489,160,0
5.450855875000343,2592,2832,0
5.453893926000092,38265,1952,0
5.4580967320002856,20741,4705,0
5.461994848000359,4385,1248,0
5.464991333000398,24325,3440,0
5.468923286000063,48075,2672,0
5.472076244000164,11522,1104,0
5.476025639999989,15651,1280,1328
5.4800498620002145,21765,6401,0
5.483980331000112,1072,2160,176
5.487915474000147,59998,2256,7185
5.491008101000261,65535,1808,0
5.495116237000275,2384,432,0
5.498250933000236,16596,80,0
5.501981203000014,30471,768,0
5.505118251000113,37657,1200,0
5.509204238000166,2048,7313,0
5.5120993410000665,1136,3824,0
5.5161679010002445,4769,1616,0
5.519139558999996,30583,3840,0
5.523019801000373,14403,4177,0
5.526983369000391,19604,1280,0
5.530241446000218,30727,3360,0
5.534142806000091,6993,6449,2816
5.538253519000136,8161,5425,4337
5.542013702000077,24469,1232,0
5.54535504200021,7585,1136,0
5.549019638000118,4817,1280,0
5.552100810999946,15859,3952,0
5.5560526940003,24181,4561,0
5.560119871000097,22005,5889,848
5.563095116000113,0,1824,0
5.56692141800022,12835,6513,0
5.570143236000149,9378,4465,0
5.574054230999991,432,6177,4577
5.57821334900018,2656,1696,13379
5.58202628700019,2720,9938,8498
5.585227379000116,9938,3936,3360
5.589260888000354,20981,3440,0
5.592057136000221,768,3936,0
5.596217155999966,528,8129,0
5.599316155999986,5617,1280,0
5.603026846000375,3120,6465,0
5.606144773000324,3376,8097,0
5.61012541700029,11570,5393,0
5.614250571999946,2416,5377,2112
5.6171340030000465,24341,736,0
5.621066496000367,27750,14387,0
5.625144893000197,4161,816,0
5.6282994100001815,47963,1856,0
5.632047245000194,8450,3920,0
5.63532788700013,15619,1024,0
5.639033181000286,13059,624,0
5.6421692650001205,0,1280,432
5.646081505999973,6113,1184,400
5.650045851999948,6401,3296,672
5.653106587000366,0,2048,0
5.6569927680002365,11186,1840,4689
5.66117660000009,20757,1232,0
5.664305063000029,11570,3280,0
5.668045221000284,23717,22645,3344
5.67232646299999,61310,28262,29271
5.676015526000356,6929,6401,1024
5.679123531000187,7585,256,0
5.682985025000107,7185,5649,0
5.686043577999953,0,1904,0
5.689987817000201,256,3328,0
5.693894036000074,18212,3248,2736
5.696995456999957,11890,2800,0
5.700951192000048,2704,6369,0
5.703887686000144,768,1312,0
5.70694622200017,0,1184,0
5.710870502000034,2400,4209,1776
5.714809620000324,11266,5457,0
5.718888654000239,9426,2048,8113
5.722150851000151,1744,5985,464
5.725820742999986,0,624,0
5.7289941160001945,19492,3328,0
5.733076125000025,3280,2640,5233
5.736845736000305,1984,2128,6161
5.74108851300025,1088,2256,2304
5.744068639000034,1888,14419,2816
5.74813350300019,6305,4705,14323
5.752058064000266,12210,624,0
5.75503406100006,32631,1024,0
5.7590907710000465,7537,8962,7009
5.763071525000214,20308,256,0
5.766868896000233,24325,17652,1760
5.770853920000263,14115,4241,4353
5.773912232000384,160,9922,0
5.77782296300029,3888,688,0
5.7809292310003,5809,1792,0
5.785080594000192,2736,3344,0
5.788212044000375,11122,2688,4177
5.7921796509999695,16644,7793,1040
5.796098492000056,1328,9394,0
5.799983735000296,13763,3056,0
5.803183883000202,4849,2912,1008
5.806991511999968,2304,2448,1312
5.811088660000223,14643,1888,0
5.814055575000111,0,2656,0
5.817069645000174,3088,928,0
5.821076889000324,4353,4321,0
5.825119164000171,2048,2608,0
5.828182508000282,7281,2400,0
5.83115881599997,0,2720,0
5.835110911000356,576,5969,0
5.838241132000348,9922,5889,0
5.842043598000146,7217,1584,0
5.845268726000086,5585,6321,0
5.849202725000396,2304,9458,5889
5.8530428590001975,8594,6641,10034
5.856974326999989,12467,22773,0
5.86114879500019,3072,5137,7281
5.864168644000074,720,2816,0
5.868142694000198,23269,4449,0
5.871243570000388,4833,4577,0
5.875129360000301,0,8354,688
5.878253886000039,29447,6849,0
5.882179334000284,2656,2352,3296
5.885988807000103,6673,9938,0
5.8892265829999815,16996,9682,0
5.893179566000072,3408,15459,0
5.8969504450001295,7937,11410,0
5.900201193000157,2320,11762,4721
5.904138651000267,0,1248,0
5.907054752000022,192,1280,0
5.911125818000073,416,3840,0
5.91423217800002,5121,2464,2192
5.918184996000036,4689,768,0
5.921073974000137,1024,1216,0
5.925146210000094,736,8658,0
5.928274386000339,1376,12034,0
5.932194672000151,5937,6577,0
5.93597545800003,10786,3472,0
5.9392182460001095,20741,1024,0
5.943171440000242,36792,880,0
5.946948671999962,6913,3072,2320
5.9501955790001375,7057,15859,0
5.9541831810001895,21589,6897,224
5.958126017000268,26854,5521,0
5.961197394999999,176,944,0
5.96422862999998,5585,8129,0
5.968070241000078,17268,6881,2224
5.971997505000218,9490,8498,11282
5.975980511000216,10546,2048,0
5.979960959999971,4609,1792,3328
5.9830120050000914,8418,6801,0
5.986935262000316,6161,7473,0
5.990084805000151,14179,2832,608
5.994003175000216,7473,3600,0
5.997872933000053,15971,4913,0
6.00094970400005,14643,13075,0
6.003888322999956,0,0,0
6.007827162000012,6625,6609,0
6.012069850999978,19620,1888,1056
6.015046687999984,768,2816,1472
6.018928630000119,8722,3600,0
6.022942217000036,3744,2192,0
6.02609828300001,1280,2880,0
6.030075789999955,7521,528,0
6.033135261000098,4417,5473,1744
6.036915085000146,23109,4881,256
6.041101714999968,11778,3840,0
6.0440330540000105,0,4080,1184
6.047939358000349,0,800,11234
6.05198433500027,4000,1824,3600
6.055162145000395,20629,736,4097
6.0591734630002065,3776,10642,0
6.063139814000351,49868,3936,4977
6.067077122000228,5009,6513,1968
6.07121095399998,7473,11186,1648
6.074256892999983,0,3904,0
6.078222845000255,1328,3328,4593
6.081226782000158,10866,6097,0
6.085078284000247,1856,80,0
6.08830664900006,7265,4561,0
6.092132316000061,15795,15331,0
6.096007767000174,4913,17108,0
6.099270116000298,7729,1520,0
6.10306447000039,3904,1712,0
6.1063109460001215,1536,2544,2192
6.110126692999984,432,3568,0
6.113422074000027,5617,2064,0
6.117095449000317,18180,5249,0
6.120242793000216,7025,560,0
6.1242318220001835,2096,3472,0
6.128198737000275,18004,9154,0
6.131237314000373,144,3840,0
6.135089089000303,17124,2480,0
6.138110255000356,3600,2720,0
6.142129461999957,0,3808,0
6.145146124000348,4865,6817,1760
6.149235883000074,4129,1952,0
6.152149672000178,13411,3072,0
6.1561251170001015,9282,4369,0
6.159287035000034,0,5137,0
6.163212875000227,11058,1552,0
6.166318152000258,0,2752,0
6.170090839000295,2688,416,0
6.173318442999971,0,8033,5489
6.176269376000164,0,8402,0
6.180172850999952,7905,6401,5537
6.184182758000134,7585,5377,0
6.187117782000314,9570,1200,688
6.19128610100006,6849,2592,0
6.1942011630003435,7457,352,0
6.19831128900023,6353,4064,0
6.202092546000131,1280,1536,2944
6.205245594000189,0,1184,0
6.209014115000173,7681,944,0
6.212096666999969,2048,7425,0
6.216141806999985,608,4353,0
6.21912372099996,1792,3120,0
6.222341849000259,256,1552,0
6.226401301000351,1280,4561,2144
6.230146844000046,112,3456,2160
6.234149229000195,1328,1296,0
6.237106844000209,816,3728,0
6.241211172000021,3328,1648,4769
6.244300619000114,8722,1232,0
6.248222210000222,4385,1792,0
6.251995962000365,672,10338,7985
6.255183212000247,11138,4769,0
6.259096363000026,2304,4817,752
6.262969755000086,12307,6129,0
6.2660864819999915,7121,4257,0
6.270047727000019,2512,7169,0
6.27309173499998,352,7201,0
6.277061996000157,27478,3216,3040
6.280962253000325,9202,1104,0
6.284045928000069,9522,4865,768
6.288004098000329,1552,6353,0
6.2910809130003145,736,4097,0
6.29497991900007,12291,8690,0
6.297979521000343,9058,2320,0
6.301947480000308,688,9234,0
6.304925394000293,0,2560,0
6.309133247000318,3824,1968,0
6.312052616000074,0,9506,0
6.31514902500021,0,8081,0
6.3188461580002695,8498,944,0
6.322148045000176,2080,1136,0
6.325922788000298,6433,7009,1024
6.328854535000119,0,7249,0
6.3330397610002365,2096,10530,0
6.336055934000342,2208,928,0
6.340027291000297,3696,13843,5489
6.344114996000371,2224,1632,3536
6.346987998000259,0,7025,176
6.3510346500002015,9122,3312,0
6.354069793000235,3152,928,0
6.358187856000313,4353,3584,0
6.362240507000024,1120,11778,2080
6.366040129000339,5809,5057,432
6.369366406000154,6913,9010,880
6.3733409820001725,0,9986,2576
6.376353713000299,368,960,2304
6.3802488310002445,11538,3232,272
6.3840170090002175,6113,0,0
6.387028658999952,224,6497,0
6.391026864000196,2912,4465,672
6.3941484500001025,1024,8722,0
6.398037595999995,8001,3504,0
6.401112800000192,0,1456,0
6.404995261000295,2720,1280,0
6.40829555900018,944,1296,0
6.411399865000021,496,4641,0
6.4152927110003475,1440,2064,0
6.418294401000367,0,592,0
6.4222415409999485,1408,160,0
6.425112375000026,1328,6593,0
6.4284021030002805,0,2800,0
6.432156901000326,3760,2816,1088
6.436106748000384,4321,1680,0
6.439205304000097,0,4000,4113
6.443341037000209,176,5713,5377
6.447006679999959,3536,1104,0
6.450223586999982,4353,3728,3056
6.454170032000093,3008,4497,0
6.458222807000311,22773,2544,1776
6.461349485000028,0,7633,5921
6.465195024999957,16724,1584,8546
6.469233669000005,35800,1680,576
6.473141123999994,0,4529,6433
6.476340227000037,1104,1904,5073
6.4801778529999865,13811,3168,0
6.48329830900002,7265,7425,0
6.48717879600008,1776,18740,13587
6.491123105000042,8962,2976,0
6.495057031000215,592,2400,880
6.498184880000281,7105,5857,160
6.5020514130001175,0,3120,368
6.50605462700014,7985,5377,2736
6.509116669000377,3600,2032,0
6.513051206,0,3744,1584
6.516180185000394,4609,976,1904
6.520308167000167,5009,4048,0
6.523186976000034,0,1360,0
6.527004598000076,0,3776,6193
6.530244445000335,5841,10338,0
6.534333435000008,3824,2800,3600
6.538147913000103,15075,3952,6305
6.542250745000274,1568,12130,1792
6.545365702000254,8145,3248,0
6.549321946999953,1712,6049,5089
6.553274007000255,6961,9378,0
6.557012081000266,3344,1488,8017
6.560177027000009,17956,2032,5489
6.564086542000041,5393,4689,0
6.567985619999945,7681,5169,688
6.571172725999986,2304,1888,352
6.575081837000198,11682,6913,0
6.57902965500034,11010,1792,0
6.582087395000144,9506,1440,272
6.585974738999994,2848,1312,0
6.588941875000273,7985,3936,0
6.59286099000019,0,11890,0
6.595937831000356,13235,3632,0
6.599991815000067,0,6737,0
6.602893909000159,0,2304,0
6.606883472000391,6849,1584,4673
6.610054192999996,544,4561,0
6.614082767000127,3328,2640,2464
6.618063204000009,15411,1280,0
6.6211244900000565,0,1632,0
6.624121944000308,0,720,0
6.626983936000215,0,2672,0
6.631122943000264,1792,7601,0
6.634154103000128,0,5393,0
6.636959314000251,0,6417,0
6.641140141000051,8594,6081,0
6.6441776700003174,0,5953,0
6.648060886000167,19460,1504,3408
6.65195732400025,12531,19636,0
6.6550520140003755,15859,1280,0
6.659108778000245,7937,6705,3360
6.663171398000031,9106,3152,14339
6.667073286000232,8978,19716,1280
6.670256977000008,0,4481,0
6.674183109000296,10802,7953,2672
6.677993957000126,0,12755,0
6.681165357000282,5169,1632,12002
6.6850650119999955,3056,8866,2064
6.688178571000208,0,2608,0
6.6920846320003875,1888,4048,6673
6.696080687000176,9010,1024,5377
6.700037739999971,10066,2192,0
6.703170569000122,2416,1536,8962
6.707069056000364,13683,2912,432
6.7109852490002595,2272,4897,1280
6.714901079000356,6913,2480,4961
6.718856823000351,7217,3248,480
6.72191655000006,3440,2448,0
6.725880718000099,144,1504,1168
6.7298697979999815,17604,1680,3664
6.732871190999958,5889,2864,0
6.736831329000324,0,7249,0
6.739886645000297,2720,2096,0
6.743863618999967,12803,9938,0
6.746902596000382,1264,1792,0
6.750871279999956,8450,6657,0
6.753884005000145,0,12050,4833
6.757872804000272,15139,7569,800
6.760908653000115,0,752,0
6.764898036999966,432,5905,2176
6.768881677000081,28646,3728,256
6.7728530660001525,1984,17908,0
6.775890268000239,4641,8498,0
6.779864055999951,12787,4545,0
6.78286247799997,2832,864,0
6.786858413000118,176,2128,0
6.789886021000257,4433,1776,0
6.79386355700035,3952,1776,0
6.796862558000157,4064,112,0
6.800851027000135,11090,1024,0
6.803916018000109,2352,416,2624
6.807893414000318,11266,5329,0
6.8118559370000185,7169,1024,0
6.814892578000126,5569,6417,0
6.81886680200023,7505,3328,0
6.821900236000147,13939,880,2288
6.825868835000165,4177,6529,0
6.829857663999974,9954,1344,0
6.832909760000348,17876,2736,0
6.8368725899999845,3888,2800,0
6.839922780000052,25142,832,0
6.843867292000141,5681,0,592
6.846904399000323,6769,1344,1392
6.85087846100032,6049,4257,0
6.854873394000151,10754,4032,6865
6.858852918000139,10418,1600,0
6.861851545000263,6305,2192,0
6.865871199000139,16772,7761,0
6.868892536000203,48,12515,0
6.872832017000292,768,4369,0
6.875895207000212,5393,4193,0
6.8788765590002185,0,8914,0
6.882884268999987,0,9330,14963
6.886902385000212,2464,11810,0
6.8900306000000455,1376,2080,0
6.892965146000279,0,1520,0
6.896883075000005,13571,7633,0
6.900978673000282,3168,6385,0
6.904157479000332,2096,3072,0
6.908153548999962,5233,4545,0
6.911122405000242,704,2704,0
6.915133175000392,992,240,2304
6.917922157000248,10370,3952,0
6.922087038999962,13843,7105,2304
6.926093951999974,16,3632,0
6.929155325000011,5921,10386,0
6.932937304999996,7841,19508,0
6.935960589000388,3936,1280,0
6.9399652179999975,3680,29351,1280
6.943899519000297,0,2784,0
6.946936884000024,1312,4689,0
6.95088022300024,2704,1360,0
6.953969774000143,3824,14579,0
6.957915316000253,12595,6913,0
6.960985069000344,2144,4513,0
6.964942386000075,21765,5329,6577
6.968907720000061,7025,2704,4353
6.972882168000069,18772,1792,0
6.975909507000324,5633,7089,0
6.978882974000044,864,0,0
6.982867032000286,16564,5121,928
6.985915500000374,0,3152,0
6.989915877000385,7793,3344,1904
6.993886687000213,4593,9010,1312
6.997858902000189,6753,5137,3968
7.001126667000335,4257,15891,0
7.005169981000108,1376,4016,0
7.009149500000149,2848,1232,0
7.01211622000028,7185,4609,2512
7.0161471020001045,0,8354,0
7.019127094000396,5873,2064,5585
7.023158508000051,14035,5345,0
7.026894569999968,8722,768,0
7.030097002000275,2480,3424,0
7.034062852000261,0,13715,2128
7.036924103000274,3328,18932,0
7.04117775900022,2848,14531,0
7.043968804000087,19732,544,0
7.047980271000142,4865,3600,5377
7.052079125000091,14691,9650,0
7.055049883000265,1040,2704,0
7.059174005000386,16179,3840,0
7.063198768000348,1024,9346,432
7.067020667000179,20885,4337,416
7.070224370000233,12739,1712,4769
7.074309883000296,1056,7329,0
7.078213605000201,1264,19380,0
7.081325905000085,9266,2512,0
7.08428412100011,800,768,0
7.0883233580002525,6593,7137,0
7.091444066000349,768,5121,0
7.0953391500002,3872,5105,0
7.098424671999965,768,1616,0
7.102086764999967,2480,6449,0
7.105389600000308,2304,800,0
7.10932984100009,11234,6449,0
7.11315039200008,2048,10930,0
7.116213460000381,1664,10978,544
7.120177111999965,5825,2544,4385
7.1240666800003964,864,9506,0
7.12716377400011,4865,1568,0
7.1310883630003445,7937,5153,224
7.1342028930002925,0,144,1024
7.138087024000015,16,7521,0
7.141201562000333,10578,9842,0
7.145119521000197,6961,7937,0
7.1480600400000185,7521,7601,0
7.152018388000215,3152,10482,2144
7.155954718999965,3408,1104,0
7.158965005000027,4865,2112,0
7.163148936000198,6145,6321,7409
7.166881274000389,128,6881,6081
7.170103553999979,256,2784,0
7.174140836000333,0,4449,0
7.176917565000167,3232,8882,0
7.181146886000079,14323,0,0
7.1840893790003975,6913,768,0
7.186940640000103,704,8962,0
7.1911418460003915,7825,2480,0
7.195093857000302,1808,3680,0
7.19805253100003,6513,1744,0
7.201047109000228,0,928,0
7.20511574000011,0,2816,0
7.208157876000314,1568,5633,0
7.212056287999985,4113,4369,944
7.216155722000167,2176,13683,1024
7.2191562620000695,9906,736,1616
7.223331776000123,8978,5985,0
7.226254772000175,352,7521,0
7.230378530000053,3008,3792,25446
7.234174997000082,2832,3296,0
7.237247691999983,9714,4865,864
7.241328411000268,6401,3840,0
7.245214164000117,8466,3328,0
7.2483465180002895,7361,8177,4353
7.252121761000126,7169,2512,0
7.255412353000338,19156,1584,0
7.259400244000062,26486,2368,2816
7.26320439500023,4961,16195,5617
7.267091944000185,6145,15411,0
7.270391750000272,23669,2048,0
7.274378045000049,1824,1536,2816
7.278333169000234,12915,2304,48
7.282040342000073,5473,1840,0
7.285215819000314,1264,1504,0
7.28836044100035,0,3840,0
7.292077198000243,288,4865,0
7.295243053000377,8562,5233,0
7.2990913430003275,688,1456,0
7.302198195000074,3888,5633,0
7.306181064000157,4369,2144,0
7.309379337000337,6209,3216,0
7.313345491000291,5681,14163,0
7.316396217000147,0,2848,0
7.32015765999995,6625,560,0
7.3233822860001965,0,2048,0
7.326259186000243,720,3504,0
7.330143614000008,5985,3632,0
7.334084728000107,2064,3312,464
7.337231118000091,10226,1792,0
7.341156855999998,2928,6065,0
7.345214393000333,17060,9234,0
7.348305507000077,2080,6289,0
7.352068283000335,304,23781,0
7.355365206999977,22709,1968,0
7.358414555000309,0,3808,0
7.362204836000274,2224,2400,0
7.366205081000317,608,12210,0
7.369242870000107,2032,6225,14083
7.373360223999953,0,11858,0
7.376411177000136,8177,20517,0
7.380196698999953,0,4032,4193
7.383325020000029,9474,3616,0
7.38723268800004,16932,4865,0
7.391323537000062,480,6641,10578
7.394224251000196,0,5265,0
7.3983035590003965,1280,1280,0
7.401268839000295,3600,1344,0
7.405287751000287,3296,5073,0
7.408359775000008,2048,1280,0
7.412121606000255,0,2480,1168
7.416066697000133,4785,1728,2400
7.419186380000156,6033,944,0
7.422188343000016,0,752,0
7.426070450000225,0,2048,0
7.429136534999998,6241,5665,0
7.433059998000317,112,12194,0
7.43703511800004,10546,3552,1568
7.440119901000344,8690,6977,0
7.4439724990002105,12403,1280,0
7.447054881999975,0,6705,2576
7.450964490000388,21461,20933,7665
7.454926524000257,13843,2048,2912
7.459110110999973,768,1584,0
7.462214822000078,5009,3472,0
7.466121837000173,4865,4257,0
7.4691158180003185,208,15283,0
7.473081019000347,5937,1824,0
7.476092023000092,1680,1616,0
7.479090450000058,0,96,0
7.483223157000339,2336,3856,1568
7.486951558000328,1680,5121,656
7.490097203000005,0,4849,0
7.494145625000328,688,4000,0
7.496923068000342,3536,3104,416
7.501088999000331,1136,5425,0
7.504476928000258,1280,400,5137
7.508137482000166,0,5505,4016
7.512200860000121,4561,1120,4401
7.515121376000025,4897,5697,0
7.519203771000321,10338,1360,0
7.523149371000272,9186,2976,0
7.526281876000212,2032,1792,0
7.530281015000128,2048,3680,0
7.53321848800033,2304,1168,0
7.537308122000013,6145,5681,144
7.540295382000295,2160,2256,0
7.544270518000303,160,6449,0
7.547404883000127,768,1568,0
7.551154183000108,1872,3120,3664
7.554390502000388,0,5089,0
7.558158202999948,6193,3232,0
7.561358873000245,0,4465,0
7.565315239000029,1200,5601,3840
7.568223239999952,9074,0,5281
7.572404070000175,7009,9842,9682
7.5763901059999625,5409,21269,10514
7.580426715000158,33544,22165,36937
7.584172639000371,1152,7889,0
7.587428875000114,0,2304,4064
7.591381656000067,480,14515,4865
7.595298633000311,5409,14307,0
7.599305174000165,9170,10034,17156
7.6033021540001755,5121,14179,7585
7.60637676000033,1728,3424,0
7.610228340000049,3248,2448,3504
7.614122239000153,0,3504,3280
7.617206936000002,6193,4097,0
7.621219427000142,6705,992,0
7.624238880000121,1040,3568,0
7.628357572000368,7441,1392,192
7.631418937000035,0,1024,6737
7.635398278000139,16355,4353,12723
7.63936188200023,7345,7937,0
7.643412800000078,9634,17828,18612
7.647340860999975,5041,19988,13523
7.650435261999974,14627,3920,0
7.654375646000062,8482,2048,0
7.658298347000255,15219,2064,3328
7.661118616000294,11378,7649,0
7.664957613000297,560,6913,0
7.668970226000056,7425,11250,4785
7.671974770000361,9506,9426,0
7.67594852800039,5089,976,0
7.678996852000182,15635,1104,0
7.6829399030002605,6001,2624,0
7.685992832000011,18100,6961,0
7.6899708040000405,7105,2960,0
7.6939393100001325,7729,1200,0
7.696930103000341,11922,3280,0
7.700887426999998,9458,640,0
7.703858803999992,0,6961,0
7.7078488070001185,12899,11026,0
7.710900024000239,4641,3888,0
7.71491898100021,7105,5553,0
7.717941464999967,15107,2032,0
7.7219517060002545,2304,1392,0
7.725937988000169,6417,1120,2352
7.728957693000211,0,6657,0
7.731956874000389,0,9986,0
7.735913964000247,3760,3440,22821
7.739942777000124,2480,29815,4064
7.742948624000292,0,1696,0
7.745950020000237,0,0,0
7.749925533000351,4577,2816,0
7.752949790999992,2032,4353,0
7.756854931000362,4689,1536,0
7.759886259000268,2304,592,0
7.763891174000037,0,368,0
7.766923283000324,3840,4833,0
7.771062787000119,10146,2256,0
7.774271821000184,1792,5041,4097
7.7782513400002244,16772,2816,0
7.781268112000362,0,2448,0
7.785131798000293,13091,2832,0
7.788178392000191,5377,768,0
7.792318606000208,4433,8097,0
7.796147180000389,1312,9298,0
7.799130163999962,2208,3296,12595
7.803173026999957,0,12403,0
7.8060944310000195,0,2320,2304
7.809960980000142,1232,3536,6625
7.81419280099999,7137,4032,2512
7.818020777000129,10546,1376,4513
7.822187410999959,4145,8978,1280
7.825257914000304,1280,2192,0
7.828219681000064,0,4353,0
7.83212447599999,0,6129,2560
7.83524582300015,0,12371,0
7.8391028430000915,8722,6929,0
7.843301910000264,14371,2816,3824
7.8463605500000995,0,2848,7857
7.850308211000083,16820,3936,0
7.854305767000369,8818,18772,5665
7.857322715000009,3664,2640,0
7.861356300000352,7569,6401,0
7.8644688600002155,7505,1024,0
7.868142767000336,0,2640,0
7.871389421999993,6145,6689,0
7.875338268000178,1520,6369,2016
7.879294418999962,8674,1024,80
7.882377585000086,8033,944,0
7.886129553000046,2592,4321,0
7.889250641000217,6961,6257,4113
7.893284915000095,9746,4064,0
7.896350216999963,13667,3680,0
7.900277673000346,3680,3664,18212
7.9043718760003685,40201,4913,17876
7.90836949100003,6369,464,2800
7.912102565000168,368,7953,6385
7.916113681000297,6913,9586,1280
7.919448677000219,1056,12819,5889
7.923147482000331,336,8498,0
7.926425672000278,0,1472,4913
7.93025714300029,3056,9970,4897
7.9342508980003,6401,3968,2064
7.938325234000331,880,10354,3072
7.9421559750003325,3168,7393,1328
7.945444247000069,9106,3952,3840
7.9493283150000025,8786,9986,0
7.9531149590002315,944,15715,5393
7.956427907000034,7937,9138,0
7.960205601000325,5009,4353,0
7.964239890000044,24325,23637,0
7.96719616900009,2384,10242,0
7.971177923000141,16756,3312,0
7.974213711000175,448,21109,0
7.978159827000127,3584,10914,2720
7.98125552700003,0,3744,0
7.9852155210001,5201,2128,2816
7.989094817000023,0,4193,7697
7.993069446000391,5185,14291,2864
7.9962292820000584,11346,16131,0
8.000191170000107,1152,4833,5537
8.003131378000035,0,3376,0
8.007086197000262,1440,9202,1264
8.011003326000264,0,18228,9778
8.01401220300022,36680,6929,0
8.019138447000387,12579,11250,10498
8.023083010000391,31799,26070,5969
8.026229361000333,20308,2144,1456
8.030155541000113,6929,6097,480
8.034156781000092,2304,15891,0
8.038196901999981,30135,13411,1264
8.041073545000017,7937,1248,0
8.045217428000342,6289,3376,768
8.049090316000274,11522,1232,0
8.052036519000012,784,9154,0
8.055209683000157,96,864,0
8.059186984000007,4625,432,0
8.062261409000257,8177,960,0
8.066100824000387,4785,1072,304
8.070036139999957,1280,3488,7617
8.073255504000372,1488,8994,592
8.077265429000363,11090,14899,0
8.08112052000024,4769,19732,16
8.085257543000353,1040,2816,160
8.088382117000037,9570,2032,0
8.09232185000019,0,12595,4465
8.095233811000071,14259,7153,0
8.09917356599999,0,7537,4817
8.102275908000138,0,16804,0
8.106176449000031,11634,5601,0
8.10931861600011,19764,560,0
8.113465038999948,16211,1104,2304
8.117173753000316,12947,16612,0
8.120313309000267,6433,5665,0
8.124419717000364,7425,12178,7857
8.12842463800007,22453,5889,1104
8.132404253000004,16900,1072,5633
8.13616415000024,9298,8594,5393
8.139278740999998,2128,0,0
8.142464938000103,0,3232,0
8.146255341000142,4289,8306,800
8.15016555000011,10386,1072,0
8.153273185000216,0,6753,0
8.157187217000228,3072,9474,0
8.160237664000306,2560,1856,80
8.164262255000267,16211,512,1488
8.167325171000357,32,5089,0
8.171178692000012,7345,8338,0
8.175257192000117,24806,1600,0
8.178444050000053,4481,2960,11986
8.182264291000138,28086,2528,10354
8.186455236000256,5857,7121,4977
8.190254934000222,50316,1280,20148
8.194448957000077,18100,15267,11586
8.1983207520002,11346,8274,0
8.201360924000255,30727,3248,0
8.205450659000235,13411,9442,0
8.209204148000026,0,256,3664
8.212366663000012,12050,25910,0
8.21635509800035,14099,6657,0
8.22006433100023,704,6593,1536
8.223506923000059,12355,5297,3504
8.227189051000096,5985,3888,176
8.231369358000393,4097,10786,176
8.23509455400017,5153,1280,0
8.238281692000328,7137,4897,3536
8.242323134000344,12291,2576,0
8.245312611000372,0,3008,0
8.24913449099995,3760,784,0
8.25222293700017,3504,3952,0
8.256333948000247,2048,5953,0
8.259217669000009,5665,1088,0
8.263289975000134,0,2960,0
8.26643831499996,1312,3552,5889
8.270194927000375,3344,2864,2128
8.27333499300039,0,19060,0
8.27723555600005,6497,1792,9570
8.281140900000082,4113,4177,0
8.284207142000014,5377,4385,0
8.288236703000166,52492,14419,5121
8.292171586000222,0,12883,2784
8.29608222800016,8866,14963,0
8.299131505000332,5697,2160,12339
8.303019977000076,65535,11010,0
8.30700833400033,6657,3056,8930
8.310955430000377,16644,3328,0
8.314150059999974,12547,10290,0
8.31814955200025,27478,5233,3072
8.322108940000362,28022,2416,0
8.325163063000218,0,1280,0
8.328955318000226,32279,5409,0
8.332209043000148,39161,6513,0
8.335963234000246,5985,240,0
8.338933863999955,6449,1680,0
8.343107159000283,34296,4945,0
8.346958531000382,31959,3040,0
8.350198449000345,11890,4577,0
8.353250522000053,0,2864,0
8.357114121999984,0,4048,0
8.360121594000248,61310,2240,0
8.364187394000055,368,0,0
8.367199314000118,22037,1936,0
8.371254317999956,8802,14867,0
8.374309433000235,11266,6433,0
8.378324655000142,1072,4817,2304
8.382361284000126,3072,8610,208
8.386022707000393,25334,5121,0
8.389451783000368,2448,2672,1440
8.393476125000234,8786,10274,7601
8.397320771000068,3760,3232,0
8.401150516000143,9138,2720,4785
8.404425061999973,2736,5473,0
8.408318016000067,6481,3744,0
8.411495887000001,17908,8017,3952
8.41545726000004,12643,3328,368
8.419240016999993,480,4945,0
8.42316262300028,1648,3840,1184
8.426437309999983,10898,4097,0
8.430232202000298,6625,2608,0
8.433366437000132,3520,3840,0
8.437167160000172,9554,1792,0
8.441310479000094,13763,3040,528
8.444472935000249,24806,3152,0
8.448373083000206,8930,2320,0
8.451301061000322,176,5777,0
8.455349261000265,256,1184,0
8.458417122000355,8738,3168,0
8.462181655000222,4145,5969,0
8.465462933000254,4016,3376,0
8.469327238999995,11506,1456,1248
8.473336087000007,38169,5761,2896
8.477290237000034,10818,2352,0
8.480373936999968,16692,3728,272
8.484308919000341,7425,5377,6145
8.488235775000248,2848,3296,0
8.492089383000348,5937,1504,1136
8.49529002700001,4849,7953,0
8.499229043000014,1776,4897,2816
8.502373331000399,6913,656,0
8.50629294700002,1680,1200,0
8.50933132199998,0,1344,0
8.513293150000209,12707,4209,0
8.516421423000338,0,8049,0
8.520297123000091,11698,6961,3472
8.524309319000167,13267,7521,0
8.52733687700038,1904,6769,0
8.531375346000004,3664,3088,0
8.534483948000343,1280,5201,0
8.538228786000218,14419,2064,0
8.541433400000187,35592,3936,0
8.545407554000121,13827,7777,0
8.549375218000023,30743,7089,3088
8.552453839000009,112,7601,0
8.556287865000286,5153,2640,48
8.559384797000348,1776,1616,0
8.56334667100009,7953,3984,0
8.567139476000193,5809,2064,0
8.570175781000216,656,1696,0
8.573386095000387,608,3328,0
8.577194912000323,8386,5889,0
8.581104286000027,4000,2016,0
8.584233210000093,2928,3360,0
8.58816301600018,3328,3328,0
8.591265478999958,6257,1680,0
8.595108667000204,12979,1664,0
8.598086926000178,1392,4048,0
8.602013669000371,0,3584,0
8.605055641000035,608,4241,0
8.608306080000148,0,2560,0
8.612219672000265,13283,4097,0
8.616176858000017,11618,1760,0
8.619254928000373,15363,2016,0
8.623170165000374,10530,2112,0
8.626188789000025,464,1552,0
8.630166458000076,6177,2288,0
8.633269892000044,3840,2816,0
8.637128983000366,21029,2160,0
8.641265359000045,4353,1760,1280
8.644253181000295,752,1648,0
8.648157621000337,11858,1504,0
8.651285248000022,1280,3296,0
8.655230173000291,3536,7697,0
8.659108264000224,23141,1328,0
8.662373371000285,3792,2816,0
8.666269546999956,7697,688,0
8.669313083000361,10466,4016,0
8.67325744200025,12307,5425,0
8.676370508000218,2432,1792,0
8.68026356900009,9154,2000,0
8.683556886000133,9682,1248,0
8.68743059999997,15891,1856,0
8.691366961000313,22245,1648,0
8.694314193000082,448,2912,0
8.698325950000253,4913,3360,0
8.701327553000283,29415,2192,0
8.705205614000079,18660,864,0
8.708332510000218,7601,2320,0
8.712154183000166,0,4833,0
8.715303506000055,2704,5121,0
8.719384436000382,2848,1792,0
8.722462785000062,4113,1040,0
8.72623783600011,2752,2816,0
8.729229432000011,5489,2320,0
8.733353304000048,4625,4721,0
8.736502522000137,56813,2224,0
8.740263058999972,9378,4321,528
8.74344739900016,0,688,0
8.747214227000313,1904,1824,0
8.750372123000034,13987,3440,0
8.754290612000204,6129,5265,0
8.758362729000055,43274,1632,0
8.761256710999987,48,1248,0
8.765159881000272,14963,1968,0
8.768301322000298,26118,2208,0
8.771345869000015,0,3328,0
8.775264887000048,7473,3952,0
8.779164649999984,4289,1824,0
8.782267755000248,3120,1968,0
8.786069364000014,944,1408,0
8.789111520000006,720,3200,0
8.793009636000079,2304,3152,0
8.796091611000065,2736,3856,0
8.799958808000156,4849,1744,0
8.803052089000175,4097,3504,0
8.807021588000225,2304,2224,0
8.810013514000275,1328,3680,0
8.813988565000273,1488,3936,0
8.817045560000224,4609,1280,0
8.821016679999957,8466,736,0
8.824048154000138,2000,2032,0
8.828025619000073,1008,3024,0
8.831030726000336,7985,3248,0
8.835029417999976,4561,2992,0
8.838066245000391,6593,1936,0
8.842005918000268,0,4929,0
8.84505323700023,2080,2784,0
8.849025938000068,4977,2096,0
8.852054362000217,432,3840,0
8.856016211000224,3072,288,0
8.858953592000034,9330,1200,0
8.862911976000305,16,1168,0
8.865990796999995,2512,2656,0
8.869953743000224,2192,3552,0
8.873056907000318,1712,4129,0
8.877030304000073,2256,2768,0
8.880028756000229,160,2544,0
8.883989423999992,6689,1024,0
8.88706766300038,6929,3024,0
8.891009528000268,11522,3040,0
8.894060335000177,3104,3360,0
8.897993419000159,1872,8386,0
8.90099940500022,7457,1360,0
8.905288050000308,3248,3488,0
8.909132045000206,6369,2448,0
8.912164314000165,3824,2480,0
8.915198866000082,0,2736,0
8.919174960999953,1808,2336,0
8.922265480000078,1376,1296,0
8.926259955000205,15107,5025,0
8.93000232400027,9330,3168,0
8.93325680900034,0,4401,0
8.936336468000263,3280,1584,0
8.94004687000006,720,7377,0
8.943197333000171,9378,784,0
8.947087647999979,2768,1808,0
8.95009690500001,1216,3472,0
8.95405857600008,5601,3328,0
8.957096737000029,8994,2816,0
8.96106135800028,8626,4625,0
8.965022372000021,8882,1008,0
8.968041645000085,2720,3424,0
8.972023697000168,2416,4257,0
8.975061868000012,15971,3248,0
8.979029121000167,7425,1392,0
8.982050523999987,7169,1568,0
8.986030782000398,9426,1280,0
8.988962833000187,16275,2992,0
8.993006606000108,15875,5665,0
8.997018725000089,13587,1808,0
8.999957055000323,1440,1360,816
9.004043615000228,16708,7057,0
9.008037724000133,25142,1088,0
9.011011313000381,3472,3888,0
9.014993593000327,1584,2672,0
9.018058668000322,1360,2256,0
9.022032201000002,24181,800,0
9.025062224000067,400,6177,0
9.029021902000295,11106,2096,0
9.032052542000201,47451,3328,0
9.036037100000158,23205,3504,0
9.039992267000343,20148,1584,0
9.04310060600028,16484,1552,0
9.047122646000389,23813,2320,0
9.051255608000247,19204,3440,0
9.054202982000334,22677,3312,0
9.058177754000099,10818,1888,0
9.061266249000255,6705,752,0
9.065134813999975,38409,2016,0
9.068312258000333,9266,1552,0
9.072300994000216,56621,6417,0
9.076274568000372,65535,2768,0
9.07925081700023,9330,2576,0
9.083177897000041,29607,1008,0
9.086242885000047,22517,1232,0
9.090110561000074,14067,4753,0
9.094291712000086,14051,3328,0
9.097239179000098,19604,1472,0
9.101288087000285,10866,1648,0
9.104276955000387,5633,1552,0
9.108391142000073,12178,3328,0
9.112269448000006,12066,3728,0
9.115360505000353,1024,2416,0
9.119442028000321,20789,1248,0
9.122533277000002,32295,784,0
9.126281338000354,6673,6449,0
9.130000882000331,1712,1328,0
9.13298303900001,13347,5233,0
9.13700144600034,14387,2480,0
9.140062467999996,27126,2528,0
9.14433572200005,27254,5857,0
9.148298714000248,14851,1792,0
9.15127992600037,20485,2464,0
9.155215765000321,256,4369,0
9.158290384000338,11778,1312,0
9.162188213000263,39209,672,0
9.165152224000394,928,1456,0
9.169183270000303,30887,3408,0
9.173234063000109,21973,2048,0
9.176305962000242,6145,2560,0
9.180122953000136,7729,1776,0
9.183342082000308,22245,816,0
9.18736667100029,12002,1792,0
9.190354032999949,7921,2816,0
9.194443802000023,11746,4305,0
9.198342261000107,32007,3440,0
9.201287738000246,1248,1024,0
9.205360327000108,6977,2160,0
9.208368422000149,2816,2224,0
9.212306257000364,12467,3536,0
9.215527858000314,34312,3024,0
9.219415256000048,0,6433,0
9.222502542000257,4241,2128,0
9.226275931000146,2864,1760,0
9.2293535230001,7633,3328,0
9.233375611000156,0,4048,0
9.236474984000324,10802,976,0
9.240269456000078,7089,2528,0
9.243412743000135,10978,2128,0
9.247390131999964,1056,1952,0
9.250603055000283,7969,2960,0
9.254455225000129,36600,3024,0
9.258395946000292,14371,1680,0
9.261381421000351,11890,2304,0
9.265208663000067,560,1280,0
9.268432889999985,2144,2400,0
9.272350927000389,7409,3296,0
9.275278554000124,3936,3856,0
9.279185534000135,64,2128,0
9.28230185800021,1904,1952,0
9.286146616000224,1104,1616,0
9.289460120000058,752,2592,0
9.293297091000113,4433,2864,0
9.296331439000369,11266,1968,0
9.300218771000345,3552,1584,0
9.303431512000316,0,1696,0
9.307175627000106,28278,3104,0
9.310601354000028,14131,3344,0
9.314296131999981,3888,10866,0
9.31820107800013,3936,3104,0
9.321449674000178,3264,2672,0
9.325225993999993,160,1584,0
9.328456963999997,5873,3248,0
9.331520831000034,0,2544,0
9.335331842999949,17188,3008,0
9.338312072000008,0,1024,0
9.342261664000034,1696,1584,0
9.345307737999974,4177,1936,0
9.349305150999953,6753,1648,0
9.352577919000396,1184,4064,0
9.356337189999977,4897,7697,0
9.35955545500019,3824,2320,0
9.36345205400039,5297,2960,0
9.367160953000166,1456,1328,0
9.370327962000374,9490,4401,0
9.374326028000269,1040,1760,0
9.377432858000248,7665,1808,0
9.381350599000143,1168,1792,0
9.384313936000126,1744,1504,0
9.38819606800007,1296,1744,0
9.391465210000206,944,3568,0
9.395193611000195,6689,3328,0
9.398264182000275,8418,1872,0
9.40134177400023,0,928,0
9.405240808000144,6257,3328,0
9.409114515000056,5889,1792,0
9.412261007000325,5121,3216,0
9.41618194900002,7601,2288,0
9.419260451000355,9682,1760,0
9.422247737000362,0,1072,0
9.426127921999978,528,6433,0
9.429130499000166,6817,3040,0
9.433015596000132,848,8033,0
9.43605926500004,0,2608,0
9.440022494000004,5633,2144,0
9.443320425000366,3104,1968,0
9.447292306000236,2000,992,0
9.45024106000028,5025,3408,0
9.453263003000302,0,3328,0
9.457253759000196,10242,4897,0
9.461257942999964,1280,2480,0
9.46415196199996,1504,1520,0
9.468283438000071,4369,1936,0
9.471309672000189,7025,3344,0
9.475282322000112,5937,3616,0
9.478300128000228,8049,1536,0
9.48231376700005,4129,480,0
9.485334017000241,1488,1760,0
9.489068235000104,7441,3360,0
9.49241714000027,416,3280,0
9.496340066000357,1072,1120,0
9.499389943000097,2976,2976,0
9.50321322200034,0,1280,0
9.506291822000094,2304,1648,0
9.510284745000263,11570,3168,0
9.513447569000164,1008,3888,0
9.517207272000178,5089,3328,0
9.520422369000244,2352,1520,0
9.524240963000011,0,5105,0
9.527493925000272,3824,1632,0
9.531415510999977,1072,4145,0
9.53429211699995,688,2816,0
9.538415875000283,7361,2400,0
9.541493778000131,2192,1312,0
9.545329465000123,0,1072,0
9.548426134000238,4977,2560,0
9.551406124000096,0,3872,0
9.55542901600029,3600,2512,0
9.558459325000058,6337,1648,0
9.56244618000028,1712,4865,0
9.566352754000036,1072,1520,0
9.569449539000288,9954,3696,0
9.57254702199998,496,2528,0
9.576476010000079,6433,3808,0
9.58017057699999,4833,1280,0
9.583411737999995,1712,2400,0
9.587344029000178,816,1824,0
9.590467132999947,3328,3344,0
9.593549969000378,0,3008,0
9.597428602000036,4177,8145,0
9.600415292999969,4481,3408,0
9.604446546999952,656,5697,0
9.607538598000247,5137,2784,0
9.611428631000308,1248,7505,0
9.61543371100015,2304,3920,0
9.618423350000285,8962,3344,0
9.62235558600014,2272,2096,0
9.62547095500031,1440,2000,0
9.629242226000315,4721,2752,0
9.632496275999983,1616,3280,0
9.636279749000096,2048,1280,0
9.63946426800021,4193,3216,0
9.642522637000184,0,992,0
9.646457503999954,2160,6401,0
9.65017673500006,3776,3504,0
9.653432285000235,3728,4289,0
9.657340105999992,800,1280,0
9.660335237000254,5025,3456,0
9.663472666999951,0,1536,0
9.667213281000386,400,3312,0
9.670526375000009,5121,2816,0
9.674413192999964,1184,4961,0
9.677520308000112,3168,1680,0
9.681305909999992,2608,720,0
9.684306298000138,32,1392,0
9.688214683000297,2848,2816,0
9.691410737000297,1328,4353,0
9.695267676000185,4353,4641,0
9.698365383000237,4785,2048,0
9.702247652000096,928,304,0
9.705298841000058,32,1664,0
9.709204049000164,5233,2368,0
9.712336788000357,2560,4353,0
9.716172283000105,4465,2928,0
9.719361334000041,3872,3056,0
9.723124266000013,256,768,0
9.726215768000202,3488,2528,0
9.730036652000308,5585,2256,0
9.733122483999978,2144,3328,0
9.737207481000041,1792,1792,0
9.740147946999969,4273,1952,0
9.744197296000038,1280,112,0
9.747316549000061,3872,2096,0
9.751295302000017,3072,3376,0
9.754330521000156,1728,2800,0
9.758278047000204,6481,2368,0
9.761323835999974,1392,2208,0
9.765146322999954,912,1920,0
9.768309840000256,4449,1888,0
9.772304722000172,464,3184,0
9.77533716500011,4785,2992,0
9.779203729000074,7425,1792,0
9.782425220000277,1312,752,0
9.786180051999963,368,2912,0
9.78946401300027,5041,2512,0
9.793218797000009,1280,3072,0
9.796547897999972,1184,1376,0
9.800386202000027,4897,7457,0
9.803575550000005,1792,2192,0
9.807447344000138,3328,4465,0
9.811384649000047,2224,3328,0
9.814311624000311,3680,4401,0
9.818352538,7185,2224,0
9.82147368799997,2304,1792,0
9.825399391000246,848,1024,0
9.828470418000052,4721,3984,0
9.832251400000132,880,2880,0
9.835373774000345,5489,2304,0
9.839406104000318,7153,1168,0
9.842499907000274,304,1600,0
9.846253863000129,288,2368,0
9.849455929000214,6897,2704,0
9.853308681000271,1456,3792,0
9.85649709900008,2496,1616,0
9.860250098000051,3888,2320,0
9.863411206000364,0,1424,0
9.866425381000226,160,1360,0
9.870303253000202,4016,5921,0
9.873527233999994,1280,3456,0
9.877472575999946,4961,3840,0
9.881359585000155,5489,1616,0
9.884299830000145,2160,3536,0
9.888226046,1648,2656,0
9.891547004000131,1536,4641,0
9.8954517760003,5457,2880,0
9.89841302900004,7937,2560,0
9.902276465000341,512,224,0
9.905242551000356,864,1456,0
9.909426303000146,4545,2592,0
9.912385846000234,1840,3552,0
9.916290605000086,4993,2304,0
9.91939884600015,5825,2544,0
9.923293298000317,400,992,0
9.92654407100008,2544,2048,0
9.930263605000164,4113,4993,0
9.933493283000189,608,4225,0
9.937312133999967,2288,2096,0
9.940301299000112,4000,1936,0
9.944438125000033,544,1376,0
9.947525401000348,2016,2752,0
9.951440176000233,4097,3120,0
9.954431328000283,2608,3056,0
9.958459357000265,7505,2352,0
9.961544660000072,1056,1216,0
9.96527912900001,0,1376,0
9.968406333000075,2992,2832,0
9.971578325000337,0,4593,0
9.975501459000043,3744,8466,0
9.97856333000027,6801,1520,0
9.98247424300007,4193,4064,0
9.985415839000325,0,1280,0
9.989229616000102,7793,1312,0
9.992287990000023,0,2896,0
9.996206083000288,3520,2240,0
9.999278929999946,5633,2720,0
10.003257672000018,336,1024,0
10.006309828000212,2512,1424,0
10.01020535400039,4145,3360,0
10.013377975000367,768,3328,0
10.017213624000306,4048,2928,0
10.020188198000142,3024,1776,0
10.02409023700011,544,1296,0
10.027145010000368,2592,2560,0
10.031068510000296,2960,3472,0
10.034256813999946,3600,4080,0
10.038316238000334,6481,2304,0
10.041386177000277,1632,1328,0
10.045283875000223,368,1872,0
10.048338507000153,4097,2688,0
10.052174042000388,0,3536,0
10.055321259000266,4145,2864,0
10.05931035399999,5953,1696,0
10.062328251000054,112,1264,0
10.066048690000116,352,1600,0
10.06923352800004,7537,3024,0
10.073320745000274,1232,3840,0
10.076352562000011,2384,1728,0
10.080141909000304,2800,1392,0
10.083558395000182,1184,1392,0
10.087366266000117,144,768,0
10.090315743000247,4465,3472,0
10.094388693000383,976,3600,0
10.097476168999947,5521,2144,0
10.101195922999977,2384,1712,0
10.10447703600039,240,1520,0
10.108374929000092,2768,2480,0
10.111474815000292,1296,3744,0
10.115246122000372,2912,3072,0
10.11853496699996,7201,1792,0
10.122330776000126,1504,304,0
10.125351241000317,0,0,0
10.128564819000076,5457,1536,0
10.132491996000226,960,4353,0
10.135456065000199,3872,1968,0
10.13944372700007,5457,16,0
10.142526849000205,432,1792,0
10.146451015000366,1376,2000,0
10.149558236000303,5969,3840,0
10.152469554000163,0,2048,0
10.156495805000304,4000,4529,0
10.159484893000354,4177,2016,0
10.163406001000112,4881,2896,0
10.166402481000205,0,1280,0
10.170296871000119,6673,1968,0
10.173458636000305,992,3664,0
10.177415913999994,2016,1536,0
10.18038856200019,3456,2336,0
10.184276822000356,416,6961,0
10.187537230000089,4177,1696,0
10.191464809000081,432,4961,0
10.19452611800034,3696,3696,0
10.198498809000284,8914,2288,0
10.201384095000321,768,1200,0
10.205455507000352,592,2496,0
10.208553203000065,4016,2640,0
10.212317242000154,80,3488,0
10.215527551000378,4577,2352,0
10.219317460000184,5441,1504,0
10.222538996000367,528,1200,0
10.22630078400016,1584,2528,0
10.229400468000222,4721,3744,0
10.23332160300015,976,5489,0
10.23637012600011,2000,2048,0
10.240216345000135,3792,1712,0
10.243522188000043,0,1088,0
10.247145520000231,384,1840,0
10.250360211000043,8706,3552,0
10.254260001000148,1872,3872,0
10.257361612000295,4753,2512,0
10.261273641000116,1360,1264,0
10.264383556000212,304,1040,0
10.268280580999999,3664,2240,0
10.271356231000027,0,3120,0
10.274453351000375,4401,3696,0
10.278377387000091,9266,4801,0
10.282158496000193,1040,1120,0
10.285246239000116,880,1744,0
10.289130901000135,5281,2608,0
10.292263835000085,2544,2816,0
10.296192408000024,3776,2336,0
10.299417469000218,6001,3136,0
10.303146509000271,560,1968,0
10.30627166100021,2096,1792,0
10.310177150000072,3840,3600,0
10.313184791000367,816,3920,0
10.31717556500007,1792,1952,0
10.320094799000344,4353,2544,0
10.324059562999992,224,2032,0
10.327097875000163,2304,3072,0
10.331368799000302,3408,3840,0
10.33438745300009,2000,2816,0
10.3381032530001,9362,2720,0
10.341372960000172,1824,1888,0
10.345361637000224,560,976,0
10.348393493999993,4417,2352,0
10.352320215999953,256,3328,0
10.35538340300036,2832,1824,0
10.359128158000203,4561,2064,0
10.3624693390002,944,1824,0
10.365159355000287,0,2336,0
10.369145893000223,10258,4753,0
10.373086944000079,256,3440,0
10.376137375000326,2224,2544,0
10.38001436400009,3424,1888,0
10.383173677000286,1792,2000,0
10.387116670000069,432,1296,0
10.39014530400027,4577,4305,0
10.394127242000195,1344,3680,0
10.397158320000017,5665,2384,0
10.40111897199995,3072,1136,0
10.404136886000288,688,1856,0
10.408114437000222,2736,2560,0
10.4111272680002,976,3152,0
10.415116458000284,3328,2992,0
10.418093992000195,7553,2432,0
10.422213638000358,1904,848,0
10.425086866000129,400,1392,0
10.429068109000127,4561,1760,0
10.432089702000212,752,3840,0
10.436066518000189,6033,4032,0
10.439085679000073,5313,2800,0
10.443077317000188,864,1104,0
10.446069977000207,864,2816,0
10.45006189600008,6769,4353,0
10.453100292000272,2272,2720,0
10.45707086900029,1792,1728,0
10.460062437000033,1504,1744,0
10.463077259000329,0,272,0
10.467095807000078,6129,3472,0
10.470087844000318,4641,2208,0
10.474419631000274,4241,4753,0
10.478438194000319,8081,2464,0
10.48144688100001,2096,1280,0
10.484440331000314,704,768,0
10.48842385700027,8786,3616,0
10.491440289000366,784,3072,0
10.495338316000016,9426,5889,0
10.499392817000171,4577,1984,0
10.502431751000131,2288,1872,0
10.506322792999981,544,2288,0
10.509394619999966,8001,3680,0
10.51242695000019,0,3152,0
10.51617166899996,6161,2480,0
10.519394249000015,2832,1024,0
10.523359614000128,1104,5345,0
10.526270047000253,816,3072,0
10.530213196000204,4433,6497,0
10.533339992000037,496,2512,0
10.537342183999954,3088,8113,0
10.540313081000022,2016,1968,0
10.544426329000089,4401,4465,0
10.548406617000182,4753,1952,0
10.55154024300009,4369,4193,0
10.555347094000354,4097,3232,0
10.558466670000143,8354,2096,0
10.562427849999949,368,1648,0
10.565402558000187,1856,1584,0
10.56943138600036,4097,2736,0
10.572589392000282,1264,3488,0
10.576352307999969,3024,2288,0
10.579454810000243,4369,1648,0
10.582430314000248,0,0,0
10.586284232000253,16,2352,0
10.589403830000265,5169,4097,0
10.592434959000002,0,3344,0
10.596284493999974,7953,5297,0
10.600095545000386,3632,1792,0
10.603200558000026,1360,2352,0
10.607166250000319,3472,2064,0
10.610138001999985,4689,3840,0
10.614138917000218,1456,2672,0
10.617235617000006,5201,2816,0
10.621324693000133,2704,1072,0
10.624329615000079,480,1520,0
10.628381125000033,3104,1792,0
10.631395019000138,1328,2384,0
10.635377251000136,2496,3552,0
10.638366621000387,5377,1968,0
10.642351841000163,2160,1264,0
10.64539480800022,336,1616,0
10.649110869000197,3840,1280,0
10.652380996000375,224,2272,0
10.656322250000358,2864,3312,0
10.659396377000121,3376,2256,0
10.663268647000223,336,5553,0
10.666188138000052,368,2000,0
10.670159967000018,5329,4561,0
10.673250909000217,560,1808,0
10.677396039000087,1392,2416,0
10.680311595000148,2992,2304,0
10.684366251000029,1024,7409,0
10.687443154999983,4417,1360,0
10.691526177000014,3072,6657,0
10.694463140000153,3280,1280,0
10.698393586000293,7889,3792,0
10.702402362000157,1600,1632,0
10.70540460400025,1088,1840,0
10.709450321000077,4865,2192,0
10.712519573999998,480,3600,0
10.71622675100025,5377,2464,0
10.71942742200008,4449,2048,0
10.722563833000095,0,864,0
10.726479301000381,1280,1504,0
10.729437449000216,3952,2832,0
10.733400583000275,4449,5889,0
10.736483757000315,3232,1120,0
10.740328607000265,4641,3584,0
10.74346424300029,0,1952,0
10.747450587000003,432,256,0
10.750371562000055,4097,3808,0
10.754324345999976,1104,3680,0
10.757448368000041,5553,1872,0
10.761521591000019,1552,304,0
10.764409383000384,0,1216,0
10.768206951000138,2304,1552,0
10.77156826700002,3872,4785,0
10.775454359000378,2496,2784,0
10.778576896000231,8290,2960,0
10.781465204000142,0,1520,0
10.785387766999975,32,6913,0
10.78850803100022,5809,2064,0
10.792455364000034,0,4113,0
10.795464609000192,2880,2544,0
10.79929535500014,5601,512,0
10.802584772000046,2064,2336,0
10.805516106000141,0,1712,0
10.809489854000276,4561,6145,0
10.812636956000006,912,2336,0
10.81651598999997,4945,6369,0
10.819552640999973,4097,2256,0
10.823417878000328,4401,4609,0
10.827269699000226,1680,3200,0
10.830303748000006,5889,2704,0
10.834474533000048,1232,3232,0
10.83746454600032,6145,2032,0
10.841520783000306,2000,3408,0
10.844575394000003,0,864,0
10.847507634000067,3648,1248,0
10.851534089000324,1488,5377,0
10.854684413000086,2160,2416,0
10.858397035000053,9058,4721,0
10.861640044000069,832,1072,0
10.865543346000322,5121,3936,0
10.869244444000287,4625,1984,0
10.872381935000249,1328,2704,0
10.876269013000183,3024,2640,0
10.879395616000238,5377,2144,0
10.882359254000221,0,1552,0
10.886348228000315,512,5137,0
10.88948631600033,3040,2048,0
10.893332121000185,784,5841,0
10.8963944420002,2448,944,0
10.90023237100013,4865,2144,0
10.903179700000237,112,1424,0
10.907169526999951,432,1712,0
10.910172738000256,3040,3216,0
10.914352302000225,2816,5201,0
10.917363886000203,6337,2928,0
10.921311998999954,2480,1632,608
10.924368296000011,0,544,0
10.928136598000037,3568,1744,0
10.931419944000027,1392,3008,0
10.93538294100017,4625,1568,0
10.93840805400032,9218,1568,0
10.942396915000245,0,5265,1856
10.945398980000391,512,1600,0
10.949157362000278,8001,6241,0
10.952475871000388,0,3072,0
10.956283682000048,3952,1520,0
10.95946449200028,6737,1408,0
10.96333166400018,4529,944,0
10.966274742000223,400,1840,0
10.97016519500039,416,3392,0
10.973618413000167,2512,2048,0
10.977423036000346,2304,1840,0
10.980410686000141,9314,2320,0
10.983513921000394,0,752,0
10.98744748900026,1664,4048,0
10.990487355000369,4833,2640,0
10.994571964999977,5409,4865,0
10.9984417630003,5617,2768,0
11.001616758000182,2768,1776,0
11.005389151000145,3728,1104,0
11.008445959000255,15011,784,0
11.01254185200014,1280,2720,0
11.015467882000394,24838,2960,0
11.019581617000313,25590,1280,0
11.022668114000226,2048,1264,0
11.026343777999955,7585,1472,0
11.030260106000242,65535,1936,0
11.03349618600032,23605,4305,0
11.037342472000091,10738,1120,0
11.040459631999965,1936,1024,0
11.044395586000064,13859,4769,0
11.048568581000382,8754,2112,0
11.051638577000176,25062,4385,0
11.055392109999957,848,3504,3376
11.058640104999995,256,1712,0
11.06257301300002,6385,6113,0
11.066388073000326,11890,2192,0
11.069493741000315,3072,2304,0
11.073478314000113,34056,1904,256
11.076825340000141,13907,4289,0
11.080357517000266,5489,5425,0
11.084361402000013,4961,1536,0
11.087558240000362,12851,2336,0
11.091510615000061,17076,2304,0
11.094474555000033,4753,4497,0
11.098384441000235,3328,1504,0
11.101428585000122,7169,1824,0
11.105427092000355,34024,5889,0
11.109155668000312,15059,4064,0
11.112381963000189,2544,1216,0
11.116273144000388,1968,3168,0
11.119375436000155,8097,1712,976
11.12349777999998,7969,5377,432
11.127329628000098,3040,2960,0
11.130335764000392,8530,3232,0
11.13432414800036,46203,4145,0
11.137555158000396,28150,2144,0
11.141276199000004,6913,3168,0
11.145249634000265,2672,1968,0
11.148433383000338,20533,2816,0
11.15242480400002,23829,3872,1200
11.156291367999984,2800,2496,0
11.159422286000336,10754,2976,0
11.16341643900023,9986,1184,0
11.166425760000038,5121,2624,0
11.170227181999962,14419,5393,0
11.174220489000163,15107,9378,0
11.177427680000164,4032,13571,1280
11.18135641400022,17476,5809,0
11.185220960000152,4961,3488,0
11.188391544000297,6833,6913,512
11.192317118000119,23301,752,8354
11.196206930000244,27302,4048,0
11.19920841200019,26246,1968,0
11.203102571000272,4689,672,0
11.206213562000357,3328,1184,0
11.210185449000164,14339,2464,0
11.214391567000348,16852,2896,0
11.217319635999957,4865,2704,0
11.221392583000124,14595,6049,256
11.224387299000227,11682,7665,0
11.228358671000024,12451,2480,0
11.232147190999967,1792,1856,0
11.235393197000121,304,3728,0
11.23910611700012,4785,1808,0
11.24239561000013,7921,1824,0
11.246326773999954,6193,2896,3568
11.25018374900037,18132,1968,112
11.253460883000116,1632,3248,0
11.257455342999947,18596,1040,0
11.260207544999957,1696,1936,0
11.264458130000094,3904,3248,0
11.26834705500005,12002,5857,592
11.272387079000055,7585,6033,2304
11.275604045000364,5633,5905,0
11.279571264999959,9250,4097,0
11.282360405999952,9986,5041,0
11.286367146999964,16644,2304,2624
11.290235723000023,560,2304,0
11.293511541000044,7937,880,0
11.297315793000053,22053,3936,0
11.300480374000017,18740,2656,3440
11.304580126000019,4369,3632,544
11.308387692999986,6769,2128,0
11.311520342000222,944,2096,0
11.315284267000152,13267,1664,0
11.318512859000293,25062,1120,0
11.322430604000147,2784,4529,0
11.32546610999998,0,160,0
11.329361827999946,5457,3072,0
11.332466169000327,512,2912,2528
11.336435387000165,10770,6705,2704
11.339506733000235,0,624,0
11.34368408499995,9490,3232,7537
11.34742229800031,9570,1696,0
11.35039603300038,1184,5905,0
11.354382386999987,6913,2064,0
11.357491983000273,5889,6769,0
11.361610465000012,2832,12547,144
11.364679594000336,0,528,0
11.368445196000266,288,8017,0
11.37252523899997,9522,9554,1872
11.375665097000365,1952,1040,3808
11.379651536999972,15443,9250,3072
11.383477043000312,0,3168,1792
11.386474464000003,784,4209,0
11.390419231000124,10722,5393,0
11.394563371999993,2208,1744,1296
11.397553795000022,26470,3072,0
11.401427163000335,17812,2560,0
11.405505343000186,6609,1152,3424
11.409387086000152,23813,1616,1792
11.412650001000202,24565,1312,0
11.416331135000291,0,3424,0
11.41954458500004,13027,2080,0
11.423411434000172,8161,5841,0
11.426693050000267,16900,848,0
11.430369831999997,0,6753,768
11.433501442000306,512,8530,944
11.437381951000134,0,5281,0
11.440419469000062,2736,5889,0
11.44451995899999,9010,1792,0
11.447558957000183,704,1264,240
11.451456687000245,0,4097,3760
11.4546657650003,4305,3472,0
11.45846637800014,8145,832,0
11.461430453000048,2048,9682,0
11.46538332,18980,4048,5937
11.469334390000313,7361,2880,3840
11.473273772000084,5201,8530,0
11.47638503799999,37417,6993,0
11.480327274000047,3104,2032,0
11.483459823999965,14819,8274,0
11.487300151,1504,6177,0
11.490385465000145,11042,1536,0
11.494227783000042,2544,3280,1776
11.498183656000037,11010,1536,0
11.502203500000178,22501,4865,4113
11.50628217800022,5377,15043,1328
11.509453655000016,5425,4945,0
11.513363635000132,10514,3680,0
11.516386306000186,11858,2352,0
11.520216850999986,10242,4145,0
11.523384589000216,0,1392,0
11.527425015000063,816,10594,0
11.530229865000365,5089,1072,0
11.534325816000091,2048,7217,976
11.538408316000186,14291,3920,1264
11.542296433000047,4833,2416,0
11.54530015399996,752,2208,0
11.549216612000237,9522,5377,0
11.552367511000284,4129,5041,2896
11.556419599000037,11698,2320,0
11.560194522000074,7393,17668,0
11.563641308000115,7121,3200,0
11.567465411000285,208,8946,0
11.570435380000163,11522,1728,0
11.573576824000156,0,1024,0
11.57756254900005,2816,3888,0
11.58153097100012,3760,15523,0
11.584621311000319,20260,5665,0
11.588579368999945,19252,10418,0
11.591627440000138,16131,752,0
11.59563411199997,30039,6257,8145
11.59948234300009,20436,18388,1456
11.60335553899995,128,3488,0
11.607494216000305,14627,2016,1280
11.6104705380003,19108,11522,0
11.614543443999992,18180,256,0
11.61844708200033,12194,7713,0
11.621593251000377,2784,2112,0
11.625475068000014,0,1296,928
11.628421329000048,2144,1840,0
11.632510665000154,416,1552,1808
11.635679789000278,11490,5009,0
11.639649900000222,2928,7217,2000
11.64347307900016,10466,6065,0
11.64666366900019,5361,752,0
11.650292989000263,6609,0,0
11.65366522300019,9730,5425,800
11.656746938000197,0,4289,0
11.6604606410001,8930,3920,0
11.664506382000127,12531,9954,3184
11.6674799970001,2480,1696,0
11.671654214000228,11122,3328,4865
11.675645645000259,16179,5457,1264
11.67947666300006,11426,480,848
11.683399478999945,25030,1616,0
11.68651320500021,18356,2064,1008
11.690526842000054,12291,13955,2816
11.6945396240003,0,5009,0
11.697685230000388,14307,1792,0
11.701561051000226,12643,13571,1264
11.705631069999981,4689,4401,1232
11.70948431900024,22069,352,1488
11.71253076100038,48,3376,0
11.716415908000272,2176,848,0
11.719491358000141,3568,800,0
11.72353890300019,3184,2000,0
11.726725485000316,3024,560,4849
11.730331363000005,0,7889,0
11.733476537000115,0,7921,288
11.737372608999976,48,1936,672
11.74148968999998,12339,2736,6289
11.744545884000217,2736,8930,0
11.748386030000347,11938,3568,0
11.75166639300005,2096,9474,368
11.755426410000382,3296,10450,528
11.759328316000392,7665,3424,0
11.763369329000398,6081,20324,13843
11.767276359000334,16051,1280,3056
11.770460660000026,10642,7249,1072
11.774388754000029,23893,9010,0
11.778397077000136,20837,12659,6801
11.78234037500033,7633,2656,4609
11.785295598000175,14371,2000,0
11.7892269580002,25206,7537,0
11.793187884999952,2560,3984,4385
11.797197493000112,18484,1024,5585
11.800197560000015,21333,1952,0
11.804375596000227,0,5073,0
11.808343088000129,16307,9074,10466
11.81145169499996,22165,3328,0
11.815348145000371,6001,9986,0
11.818408566000016,16916,480,0
11.82238889700011,10018,1760,0
11.825447503000305,2544,2960,0
11.829418761000397,12595,13907,0
11.83334495500003,4449,2288,9570
11.837377347000256,2304,5809,0
11.840280696000264,6737,17044,3504
11.844362113999978,3616,22533,13923
11.84844606500019,4881,2416,176
11.852474494000035,384,6593,2864
11.855565335000392,12883,4977,0
11.859506922000037,2288,3856,4385
11.863556519000213,6353,6241,0
11.866431658000238,0,1072,0
11.869464430000335,0,8626,0
11.873483711000063,4609,9586,0
11.876724376000311,560,880,5073
11.880436102000203,10706,8177,4385
11.884498715000063,7537,0,0
11.887607091000064,5345,2032,0
11.891508030000296,576,816,0
11.894617200000084,16211,6753,0
11.898514996000358,400,23653,0
11.90160542700005,3200,2768,0
11.905526323000231,9634,1424,0
11.909398303000216,5617,18292,2224
11.91268673500008,9026,11842,3264
11.91647201700016,864,1760,0
11.920252320000145,3120,7249,528
11.9244410780002,23813,3840,2992
11.927598672000386,2288,1312,0
11.931445262000125,736,3696,688
11.9353112900003,10930,8978,6753
11.938615069000207,12995,944,0
11.941649476000293,0,2720,0
11.945662170000105,6305,8626,9794
11.949429980000332,9986,10914,0
11.95267401000001,0,1248,4257
11.956519183000182,4481,1504,5473
11.960361289000048,6481,8017,0
11.963680749000105,3184,3104,256
11.967465519000143,0,12771,0
11.970512460000009,992,2432,0
11.974623728000097,17412,768,448
11.977687380000134,5729,704,0
11.981468722000045,7425,5041,2320
11.985578678000365,544,3536,8738
11.988702398999976,4593,768,0
11.992573170000014,0,12130,0
11.99571132400024,3200,8498,1344
11.999509652000143,7457,4881,576
12.00266173,0,928,0
12.00648202100001,18292,1280,256
12.01039869000033,768,6257,0
12.013675248000254,544,2464,0
12.017596443999992,18804,5969,0
12.02158296100015,12547,17396,5089
12.024726379000185,736,1792,1712
12.028636050000387,16,6769,3056
12.032380785999976,6113,1216,15715
12.035698676000266,624,1824,0
12.03958147000003,2144,384,768
12.043391546000294,400,432,1552
12.046492448000208,896,1680,0
12.05033206600001,2208,6001,1168
12.054296477000207,8994,5377,752
12.05744744499998,5889,2224,256
12.061338578000232,1376,5969,0
12.064479414000289,13283,5377,0
12.068408881000323,10626,11042,0
12.072371559000203,10658,1744,3232
12.076262593000138,4145,17764,0
12.07932490400026,14547,1024,0
12.082338746999994,0,0,0
12.086262771000293,20244,15971,17460
12.090241514000354,17652,3168,0
12.094302401000277,9218,7633,4529
12.098289789000319,22469,6625,2768
12.1014995620003,1792,18468,0
12.105395129000044,18180,5969,0
12.108480673000031,0,22805,0
12.112369022000166,15923,3856,0
12.116368443000283,6513,5169,576
12.119412448000276,4465,7969,0
12.123286477999955,5057,528,800
12.126426269000149,256,1024,1168
12.130219360999945,1552,7473,0
12.133506441000009,1680,768,0
12.137507224000274,6177,6657,0
12.14029020900034,0,576,0
12.144497966000017,1024,3472,176
12.147567719000108,0,672,160
12.151486820000173,48,2224,0
12.154689119000068,13555,13683,0
12.158626779000315,9250,6641,0
12.161711455000386,4689,2512,0
12.165566023000338,5409,1952,0
12.168621260000236,17124,6561,0
12.172664411000369,7201,4641,3168
12.176634998000281,8370,5585,0
12.179590848000316,1792,4177,0
12.183567026000219,1968,4337,5649
12.187630217000333,5489,3392,160
12.190663541000049,5713,20501,0
12.194706400000086,2304,17332,5345
12.198665161000008,23077,1072,0
12.202539379999962,4721,2160,0
12.205609442999958,784,5169,0
12.20961705300033,19124,5121,4385
12.212731566000002,1968,1296,0
12.216515797000284,4657,4257,0
12.219581046000258,3280,1024,0
12.223527195000315,0,3232,256
12.226705679000133,0,3344,0
12.229613176000385,0,1568,0
12.233618192999984,8434,2576,1792
12.237638807000167,464,4865,1904
12.240594546000011,0,2416,1008
12.244658581000294,3392,7729,0
12.248446726000111,6577,2672,0
12.252529266000238,10722,10386,3008
12.255721929000174,4865,1872,19908
12.259700086000066,0,11266,6193
12.263504205000118,2080,5057,656
12.26755810700024,7921,1072,5185
12.270512657000381,3168,6305,0
12.2746284990003,1808,96,1568
12.277657612999974,768,5777,0
12.28162813300014,17668,2304,0
12.284527213000274,5889,1504,0
12.288611769,8626,17188,0
12.292373987000246,15939,1920,0
12.29564365000033,1408,7953,4593
12.299422133999997,336,9138,0
12.302820336999957,7313,3488,768
12.306762114000321,21605,12915,6257
12.310454915000264,8498,4353,0
12.313694252999994,672,4080,0
12.317476058000011,7809,2256,0
12.320509950000087,5201,528,0
12.324618742999974,4817,3856,0
12.327649546999965,0,1072,0
12.331626529999994,5649,3936,128
12.335614294000152,5009,2864,336
12.338518001000011,10146,3536,0
12.342412756000158,5121,5489,0
12.345512761000009,2112,4977,0
12.349433001000307,19508,7169,0
12.3524969770001,928,1056,0
12.356482172000142,10018,15059,976
12.360376291000193,20228,560,0
12.363526652000019,3952,8450,0
12.367505117000292,29047,10930,1040
12.371453079000275,3232,16243,5025
12.375238327000261,0,6497,0
12.378261082000336,1856,1504,4177
12.382210078000298,5153,9778,0
12.385255273999974,8738,960,0
12.38942612000028,0,112,0
12.392474734000189,2272,6817,320
12.396380752000368,11890,7457,0
12.399486421000347,9138,1360,0
12.403367118999995,7841,6113,0
12.406477161000112,720,1792,0
12.410230716000115,11538,2048,0
12.414435550000235,3648,1008,0
12.417457997000383,4865,5121,0
12.421409635000145,3888,1552,0
12.424455995000244,3648,7857,0
12.428415306000261,0,688,2720
12.431502317000195,10658,7137,3232
12.435486626000056,6353,5793,5793
12.439354584000284,4305,544,0
12.442425070000354,848,800,0
12.445461256000272,0,976,0
12.449428964000163,1504,608,0
12.452714485000342,8594,6097,3056
12.456651676000092,7169,5089,0
12.460417596000298,4353,3056,10418
12.464376016000188,17364,368,2320
12.46753266099995,3440,20565,0
12.471614118000161,5073,896,3328
12.47555286700026,5873,11234,544
12.47856479200027,0,11858,256
12.482497460000104,6961,7697,5041
12.486671194000337,2576,13875,2576
12.490268861000004,9010,22885,0
12.49361785300016,1120,8450,5681
12.497486139000102,2096,5233,0
12.501533871999982,2560,3088,0
12.50463370000034,656,1824,0
12.50766941000029,2960,512,0
12.51164275400015,2784,4080,1792
12.51551150000023,9810,3216,2240
12.519542359000297,16468,3920,0
12.522481375000098,0,1488,0
12.525675157000023,0,4785,0
12.529613255000186,1792,3184,1520
12.532482561000052,0,2928,0
12.536503631999949,0,2816,0
12.539651302000038,12130,2800,0
12.543478378000145,9010,4689,0
12.546527547000096,1792,1776,0
12.550506548000158,25094,10642,16019
12.554598459000317,5201,1760,0
12.558484356999998,13075,7873,8898
12.561670760000197,3280,15219,0
12.56543161000036,0,5985,0
12.568693670000357,256,15299,704
12.572665088000122,20212,9298,1328
12.57662484299999,3888,7361,0
12.579710721000083,288,17204,0
12.583411675000207,4865,32,0
12.586713393000082,2720,1424,0
12.589751924000211,0,4817,0
12.593528567000249,1952,8113,0
12.597342204000142,2304,2336,0
12.600451810000322,4513,1488,0
12.604382016000272,2320,768,0
12.60745538800029,4353,2384,0
12.611676812000042,1296,6513,2320
12.614755381000123,912,5521,0
12.618630862000373,2992,3328,0
12.621675541000059,0,6513,0
12.625447571000223,992,3088,6401
12.628613234000113,1760,9298,0
12.632555924000371,7633,2864,0
12.636683004000133,17092,1232,3872
12.64038157799996,2816,4881,6401
12.643484122000245,7169,944,0
12.647409857000184,17124,1504,0
12.650513675000184,8418,6689,2704
12.65450036600032,21717,3312,4177
12.658452148000379,22773,18324,0
12.662335185000302,0,4337,4209
12.665630624000187,1024,8290,4449
12.669331003000025,15331,4769,0
12.673258099000122,32,1056,1744
12.67627383900026,8001,3632,32
12.680210572000306,23109,3808,0
12.68347048800024,2992,624,0
12.68739696900002,11970,720,2160
12.691502233000392,10194,4561,0
12.694544858999961,4833,3792,5233
12.698337020000054,11522,9298,0
12.70146172700015,0,2096,0
12.7054261090002,0,10738,0
12.708414844000345,0,7809,0
12.71238570000014,6433,13171,1696
12.716366004000065,2304,23157,0
12.719445801000347,6961,26038,9106
12.72341064200009,16147,3104,0
12.727418543000113,1536,3440,2288
12.731357929000296,6449,4064,2304
12.73455291900018,10850,4625,0
12.738537682000242,10706,2912,0
12.741589907000161,64,3616,0
12.745412987000236,0,9714,0
12.74842757200031,0,2096,0
12.751659146000293,0,3984,0
12.755463546000101,4193,896,6433
12.758674743000029,27430,0,0
12.761577665999994,0,1504,0
12.765458716000012,16307,6481,0
12.76943393700003,27254,7009,5777
12.77273220699999,176,2240,0
12.776703054000336,17988,9234,0
12.780418868000197,11266,6161,16
12.783603915000185,2816,2784,0
12.786699670999951,0,0,0
12.7904316260001,624,4977,416
12.793661108000379,64,5969,0
12.797603437000362,0,8962,3872
12.800513367000349,272,2464,0
12.804580256999998,656,2608,0
12.807686972000283,9778,1120,144
12.811573836000207,2768,7025,112
12.81547397400027,11090,3104,0
12.818738378000035,8546,1760,0
12.82269486200039,6449,3936,2800
12.825747746000161,80,944,0
12.829502247000164,0,13267,0
12.832559497000148,6225,5169,1024
12.836679087999983,6881,15267,0
12.840416087999984,7905,3568,224
12.84457835100011,6705,11266,9986
12.847558747000221,1024,9106,0
12.851612160000059,2816,5377,0
12.854702741999972,11170,496,0
12.858504892000383,8850,7169,0
12.861741787000028,8354,2048,0
12.865596609000022,0,4593,0
12.868568170000344,0,3920,0
12.872537725000257,3280,4369,0
12.875636533000034,7473,4497,0
12.87873644299998,8962,544,0
12.882456556000307,5889,2304,0
12.885669343000245,0,768,0
12.889603319000344,14291,3376,0
12.892680662000203,9442,4513,0
12.89664692300039,1440,1552,0
12.90035052400026,2656,10898,0
12.903751887999988,6193,30983,12947
12.907647444000304,3248,4161,0
12.911613094000131,2928,800,9586
12.915391273000296,160,2064,10482
12.918539192000026,1264,9538,0
12.922709358000247,6257,18180,48331
12.926643141000113,848,8562,7969
12.930345092000152,1024,1488,2784
12.933515392000118,944,6977,9698
12.93745492700009,7521,2288,2304
12.940542624000045,432,2128,0
12.944447912000214,1424,4097,0
12.94751399300003,256,3328,0
12.951412060000166,6225,3248,0
12.955246912000348,0,5217,6625
12.958301399999982,4897,4385,0
12.962241219000134,7185,304,0
12.965272336999988,1152,6273,0
12.96923970600028,27638,3360,8113
12.973379598000065,2352,3696,3632
12.977485115000036,10194,12258,16371
12.981475359000342,10354,26006,0
12.984527252000134,2160,4113,0
12.988509131000228,2656,2736,4625
12.991573987000265,0,1568,1168
12.99549566900032,9042,6177,0
12.998495683000328,7281,1040,0
13.002546257000176,11570,3312,0
13.006401112000276,1808,6609,0
13.009552603999964,3024,4097,2464
13.01348280900038,12547,19252,0
13.017549471000166,16,2016,10866
13.020462709000185,6001,7025,0
13.02453537600013,23013,3328,0
13.027698456000053,8994,3936,0
13.031524721000096,3328,3024,1184
13.035720883000067,11490,1712,3024
13.039627747000395,16980,1840,0
13.042746531000375,0,1328,4080
13.046539418000066,2624,544,0
13.049637760000223,11746,4337,0
13.053593869999986,4097,6001,4897
13.057456538000224,912,688,0
13.060591540000132,2256,752,0
13.063653476000127,3024,816,0
13.067718225000135,7681,4048,0
13.070573911000338,720,1200,0
13.074701180000375,4961,4273,0
13.078479364000032,5377,1904,0
13.081539128000259,11362,1632,0
13.085575643000084,5889,7681,0
13.088691658000243,128,2720,0
13.09248715700005,2336,2784,0
13.095726456000193,4609,5281,2048
13.099484002000281,4097,17828,0
13.103695533000064,17012,1952,1024
13.107555209000111,2704,1712,0
13.110505016000388,15107,18084,0
13.11469352200038,10706,1824,10130
13.118653387999984,3344,1200,0
13.121752864999962,13347,1616,0
13.125541784000234,9266,14627,0
13.129658097000174,11762,10850,768
13.133515498000179,2880,3072,5889
13.136810120000064,2304,1008,1024
13.14052360300002,7185,2528,1072
13.144642965999992,256,3392,0
13.147835674000362,3792,2400,0
13.15164387599998,2352,2816,0
13.15476260100013,10898,2672,0
13.158672553000088,17652,7425,0
13.161796983000386,0,5681,320
13.16555459700021,5377,5057,64
13.169561320999946,9234,2048,0
13.172739741999976,6913,5329,0
13.176536019000196,0,3696,6641
13.17971047600031,3472,4097,0
13.182637058000182,9378,0,0
13.186636085000373,2000,3824,0
13.190577832000145,2560,1904,0
13.19359430700024,3328,5121,0
13.197594277000007,9138,1184,0
13.200611485000081,2576,1136,1696
13.204664126000353,0,3632,0
13.207755693000308,11538,1360,0
13.211471413000254,0,3696,5825
13.214866942000299,6337,9826,0
13.219039799000257,1584,6321,0
13.222600865999993,12066,6801,0
13.225426563000383,4064,5489,0
13.229213425000125,7713,2864,3856
13.232270220000373,5713,6881,0
13.236280804000216,3024,14259,12291
13.24024591100033,5057,16323,0
13.244212337000135,1456,1616,0
13.247256585000287,1792,4897,0
13.251228679000178,13491,17668,0
13.254263560000254,8161,1088,0
13.258239437000157,12435,4657,0
13.261272353000095,1072,816,0
13.26523304200009,640,3376,3600
13.269195180000224,0,672,3408
13.272743939000065,2992,1808,0
13.276225213000089,9218,1072,0
13.279247992000364,1024,5505,0
13.282232921000286,0,560,0
13.28617597900029,208,5793,0
13.28927031000012,1712,11490,0
13.293251234000309,0,4113,0
13.297227806000137,1744,7697,2016
13.300276423000014,14195,6145,4080
13.30426461900015,784,5089,4385
13.308202170000186,10242,26790,0
13.312235154000064,27446,1696,3536
13.315295182000227,12178,15107,0
13.319673719000093,16083,6145,0
13.32320926400007,26086,26326,3824
13.326234364000356,0,1888,592
13.330229829000018,2064,14307,0
13.334580949000156,19540,18532,2816
13.338417541000126,14547,512,0
13.34155706499996,6401,3840,3728
13.345464406000247,832,2048,0
13.348435909000273,0,1024,0
13.351716929000304,0,9506,0
13.355563708000318,10066,8866,560
13.359563289000107,14307,1376,0
13.36276129900034,2544,1488,0
13.36648098600017,400,752,0
13.36955779300024,3840,992,0
13.3726018870002,0,3088,0
13.376537757000278,8930,4353,0
13.37956582300012,6385,4129,0
13.383569719000207,1056,5553,0
13.387483363000229,5089,2880,5889
13.390566697000395,5409,18676,0
13.394666533999953,1008,8402,0
13.398520465000274,29015,4129,752
13.401748630000384,9762,15587,0
13.405707553999946,8338,10386,3536
13.409748394999951,35080,7345,25638
13.413506519000293,12851,288,0
13.417507386000125,21109,25862,608
13.42161760800036,14083,12210,256
13.425454757000352,31271,14579,2256
13.428487729000153,22549,8898,0
13.43240558100024,0,3280,400
13.435736377000012,8930,7521,0
13.439519337000092,19956,2192,0
13.442730599000242,8274,496,0
13.446536276000188,4593,400,0
13.44951896800012,0,816,0
13.452618671999971,0,864,1024
13.45660510100015,9618,3312,0
13.459748785000102,6177,64,0
13.463563341000281,672,9026,1552
13.466731997000352,0,1200,8049
13.47061917300016,7185,15843,3840
13.474531464000393,1920,13059,2128
13.47859008200021,11986,4657,2304
13.482616561000214,14739,13523,0
13.486502829000074,20196,4673,7921
13.490454642000259,14531,11442,8017
13.49359111800004,6801,1104,1472
13.497513863000222,19604,37849,0
13.50152994300015,27238,2384,7473
13.505406181000126,2480,1568,0
13.508542212000066,1424,4097,0
13.512400722000166,0,6177,1584
13.51550777400007,5649,3184,1024
13.519450859000244,4401,7153,11250
13.523382523000237,17652,544,8994
13.52736602899995,11170,6145,8466
13.53129951200026,8626,52892,7937
13.5352750320003,11890,55101,14579
13.53852228200003,5697,2816,0
13.542244266000125,12771,6497,12787
13.546493940000346,36873,25302,5009
13.5502825880003,17508,21397,26982
13.554275649000374,24373,3088,11186
13.558322289999978,45531,19508,12595
13.562456320000365,26150,2784,0
13.566438190000099,0,3280,5729
13.569499021999945,704,12403,4865
13.573456601000089,20613,19796,0
13.577560151000398,14691,2624,0
13.580342883999947,7633,7393,0
13.584520344000339,15587,32,0
13.587573490000068,768,13971,0
13.591466330999992,14307,1600,0
13.594583059000342,2608,1536,0
13.598364382,12194,4609,0
13.602441419000115,1888,1712,0
13.605678503000036,0,1456,11234
13.609646974000043,0,768,5377
13.612751368000318,7025,2848,0
13.616647707000084,17780,2144,8450
13.620661946000382,24854,1792,10258
13.623618459000227,80,1456,0
13.627732656000262,496,8466,7921
13.631547571000283,11890,10850,11538
13.635656422000011,16628,496,0
13.639496346000215,21509,4145,6817
13.643487679000373,23333,41130,5249
13.646616088999963,9042,8354,8049
13.650476927,2816,4193,0
13.654525804000059,16692,13283,9202
13.658505806999983,13523,13251,0
13.66157150700019,1312,11250,0
13.665404370000033,20661,848,0
13.668592242000159,6417,4305,0
13.672625580000386,0,3888,0
13.675608041000032,1344,5329,0
13.67949184400004,10418,672,0
13.682619258000159,3488,4337,0
13.686553494000236,8482,736,0
13.689606514000388,1632,3120,0
13.692862330000025,0,880,0
13.696601116000238,4257,2176,0
13.6996022860003,5457,2368,0
13.703619102000175,17012,8274,0
13.70670583600031,0,2672,0
13.710470523000367,14099,928,0
13.714534370000365,1520,3984,7585
13.717696051000075,8482,3776,3376
13.721644016000027,0,3760,0
13.724748424000154,14339,1168,0
13.728646746000322,18292,11778,2752
13.732472206000239,0,4273,336
13.735672353000155,1824,2000,0
13.739381032999972,0,19716,0
13.742796156000168,944,4705,12627
13.746652145000098,4257,12066,3024
13.750522777000242,9986,2816,0
13.754525729000306,1328,9874,3248
13.757682374000069,23413,2528,0
13.7617132700002,22533,1712,0
13.764836280000054,1520,6257,0
13.768617437000103,2976,5665,0
13.772473100000298,15779,15027,0
13.776443640000252,15635,3168,2720
13.779535493000367,6897,1392,0
13.783568868000202,11922,624,0
13.786534517000291,368,768,0
13.790422296000088,9218,1360,0
13.793590569000116,13315,7937,0
13.797444139000163,22613,1904,0
13.800523620000149,1760,7201,0
13.804360131000067,3840,2592,0
13.807432535000316,10146,1584,0
13.811344916000053,10770,2656,0
13.815275167999971,3056,11010,0
13.818303164000099,1632,768,0
13.822276121999948,1200,1200,0
13.82527600100002,7937,5777,0
13.829264072000115,0,1808,2208
13.832312608000393,3568,19604,0
13.836301757000001,14819,24533,9218
13.84026332700023,7249,6897,0
13.843316182000308,9522,1632,0
13.847289990000263,65535,7425,0
13.851224602000002,1344,2576,0
13.854256760000226,44474,7777,704
13.858268574000249,44298,8722,2080
13.86218961700024,512,1136,0
13.865257623000161,2304,5809,0
13.869273338000312,21301,4048,0
13.872307704000377,1792,6673,0
13.876280590000079,9618,6961,0
13.880204663000313,23637,1280,0
13.883476599999995,6401,1488,0
13.88745684100013,3744,848,0
13.890256875999967,6177,4593,0
13.8942574470002,272,5553,0
13.897254801000145,768,3264,0
13.901270188000126,1328,2896,256
13.904289307999989,944,2000,0
13.908268039000177,1488,3168,0
13.911265972000365,2592,11522,0
13.915250155000194,3072,2672,0
13.918299923000177,4865,1280,0
13.922279547000016,272,5633,0
13.925307571000303,1936,2512,0
13.929293318999953,10642,7169,0
13.93329422700026,3408,7425,4209
13.936279577000278,512,1840,0
13.940249642000254,752,2528,0
13.943322850000186,2624,7713,272
