time,emg1,emg2,emg3
0.005878517999917676,7441,0,0
0.008942828999806807,0,0,0
0.011945043999730842,1312,1488,0
0.015975906999756262,8978,1792,0
0.018960711999625346,0,2464,0
0.02290887799972552,464,2272,0
0.026026825999906578,5521,2448,0
0.02993031300002258,464,2240,0
0.03295415000002322,5041,2304,0
0.036931334999735554,5201,2464,0
0.03993583300007231,1424,912,0
0.043928891999712505,1024,1232,0
0.046953411999766104,4865,2976,0
0.049975386999904,0,1264,0
0.05394269099997473,5217,5889,0
0.05792320899990955,2704,2320,0
0.06091923799976939,2704,864,0
0.0639713139999003,16,2288,0
0.06795227699967654,7185,1552,0
0.0709707639998669,2304,976,0
0.07495154299977003,6641,1136,0
0.0779704829997172,1472,1680,0
0.08182583000007071,0,6721,0
0.08492154999976265,5281,2304,0
0.08892085999968913,1392,1392,0
0.09186145299963755,3280,1760,0
0.09625272799985396,8466,1776,0
0.09895043400001668,272,1792,0
0.10316718099966238,2304,2544,0
0.10595730399973036,3328,2672,0
0.10991448400000081,2352,1984,0
0.11315701399962563,5313,2848,0
0.11716548000003968,5649,4897,0
0.12016148999964571,560,1824,0
0.12417303799975343,768,9202,0
0.12712767699986216,5073,1120,0
0.13119181399997615,688,6145,0
0.13411506900001768,2640,1376,0
0.13808188599978166,2816,6801,0
0.14111197600004743,0,0,0
0.14415364599972236,944,1600,0
0.14812644299991007,1280,8802,0
0.15113732500003607,4705,1776,0
0.1552473279998594,6545,3936,0
0.1590651510000498,1440,1616,0
0.16231060899963268,5121,2736,0
0.16611437799974738,5617,1392,0
0.16921183499971448,2464,3072,0
0.17303935799964165,2288,512,0
0.17620101199963756,8017,1792,0
0.17923936899978798,64,1024,0
0.1831674329996531,3984,3104,0
0.18706642699999065,6417,1504,0
0.19004932600000757,1280,2736,0
0.19397993799975666,3232,1648,0
0.1970251989996541,3376,2656,0
0.20096267999997508,752,2720,0
0.20400493199986158,2816,1488,0
0.20790934599972388,3680,2304,0
0.2112470150000263,1184,1792,0
0.21510200099965004,2720,1536,0
0.21810344699997586,1824,3296,0
0.2220703630000571,0,2528,0
0.22514877799994792,5169,2384,0
0.22891752299983636,2384,2800,0
0.23215153299997837,3760,2528,0
0.23612748100003955,6609,3152,0
0.2390208580000035,688,2304,0
0.24309045699965282,512,944,0
0.24610631699988517,8113,3072,0
0.24912600799962092,720,2288,0
0.253040313999918,5233,2608,0
0.25699465099978624,6401,2192,0
0.26007639099998414,1552,1968,0
0.2640787269997418,1104,1712,0
0.2671544029999495,5377,1792,0
0.2713246039998012,864,2160,0
0.2741395729999567,3584,2384,0
0.2782429849999062,3840,1792,0
0.2811405739998918,272,2048,0
0.28533305499968264,992,2768,0
0.2884165649998067,4689,2304,0
0.2921389159996579,2016,1568,0
0.2953307949996997,6337,2048,0
0.2993303379998906,1328,2304,0
0.3023013529996206,32,2560,0
0.3061774319999131,4193,1312,0
0.3091256969996721,0,2816,0
0.3123499220000667,2656,1008,0
0.3162380280000434,9218,5457,0
0.31945162400006666,768,1968,0
0.32335508000005575,4913,4097,0
0.3272627989999819,4817,2992,0
0.330389150999963,3328,2352,0
0.33430727799986926,3776,2064,0
0.33724231799988047,4273,3072,0
0.340331791999688,0,2128,0
0.34437611999965156,1008,5057,0
0.3473466729997199,6145,1968,0
0.3512532749996353,4321,3824,0
0.35511111300002085,2400,2288,0
0.35827574799986905,2480,2304,0
0.3613204149996818,0,1040,0
0.36520725399986986,2160,5905,0
0.36830485899963605,1632,928,0
0.3724892559998807,1808,2976,0
0.3753434679997554,6449,3696,0
0.379371294000066,2416,5553,0
0.38218826999991506,0,2352,0
0.38618098400002054,6401,1824,0
0.38932308199991894,3280,1792,0
0.3931229810000332,5457,3168,0
0.3962500419997923,4945,1104,0
0.40031321299966294,784,4833,0
0.4034133729996938,0,1680,0
0.40723431499964136,12835,2128,0
0.41028876099971967,1312,2080,0
0.414344372999949,9218,1952,0
0.41740013399976306,4945,2704,0
0.4213175049999336,80,1888,0
0.4244217159998698,1024,2432,0
0.4282159059998776,5329,2528,0
0.4312851419999788,2288,1920,0
0.4352783869999257,5729,944,0
0.4384374759997627,1792,2512,0
0.4422056089997568,928,256,0
0.4453633240000272,4449,2560,0
0.4492072499997448,4721,2320,0
0.4522315300000628,4305,1680,0
0.4562670719997186,8434,2560,0
0.4591284379998797,0,1584,0
0.4622433229997114,0,2176,0
0.466069872999924,3568,1104,0
0.4692090619996634,2368,1984,0
0.4731559379997634,4273,5281,0
0.4770558209997944,5489,1488,0
0.48014996499978224,2672,2816,0
0.4840658399998574,1056,1568,0
0.48719858399999794,5473,3408,0
0.4909042340000269,784,1808,0
0.4940932659997088,5153,3072,0
0.49797762999969564,3328,5377,0
0.5009862570000223,560,1456,0
0.5050598630000422,1040,2096,0
0.5080975480000234,4064,2064,0
0.5121846809997805,192,2256,0
0.5150969599999371,6785,2816,0
0.5188779869999962,2016,2320,0
0.521930269999757,416,1552,0
0.5261946969999372,4321,2112,0
0.5292094739997992,1056,1840,0
0.5329203029996279,6929,1792,0
0.5360670709997066,6897,2576,0
0.5401820600000065,256,2496,0
0.5431773129998874,944,1888,0
0.5469144879998566,7169,1968,0
0.5500851449996844,144,1792,0
0.5540485709998393,3328,4113,0
0.5572243919996254,1248,3200,0
0.5611005109999496,768,3296,0
0.5641204199996537,2144,800,0
0.5680858749997242,3376,1328,0
0.5713778959998308,1888,2960,0
0.5751372099998662,3808,1632,0
0.5784386410000479,2800,2304,0
0.5822003240000413,160,2048,0
0.5853007529999559,4593,112,0
0.5893157010000323,2272,1632,0
0.5924116179999146,3392,1088,0
0.596304938999765,6465,3088,0
0.599422095999671,224,2320,0
0.6031405569997332,0,2160,0
0.6063316569998278,7089,2096,0
0.610275549999642,11842,2368,0
0.6132565439997961,10194,2336,0
0.6172819589996834,11250,2832,0
0.6204259529999945,1040,1776,0
0.6243414729997312,10050,4657,0
0.6282231159998446,7425,864,0
0.6313324369998554,3616,2032,0
0.6341958739999427,0,1392,0
0.6382522280000558,2304,8017,0
0.6413550219999706,1184,2160,0
0.6453164549998291,3408,5425,0
0.6483469729996614,4097,3008,0
0.6522983509998994,5217,3520,0
0.6560838989998956,6097,2512,0
0.6592163369996342,1040,2048,0
0.6630836609997459,176,1136,0
0.6662549999996372,5377,2288,0
0.6703299929999957,1184,1232,0
0.6732659909998802,5809,3072,0
0.6773143469999923,2880,1280,0
0.6803647709998586,800,1136,0
0.6843000300000313,2400,3120,0
0.6873030259998814,5009,1568,0
0.6912063380000291,3216,1824,0
0.6942503430000215,2912,1536,0
0.6981524149996403,2448,288,0
0.7012552669998513,1072,1808,0
0.7052371949998815,1760,1856,0
0.7082144910000352,5857,4000,0
0.712172752999777,7537,2768,0
0.7153366610000376,5985,2816,0
0.7193349919998582,2720,7201,0
0.7222689689997424,0,1424,0
0.7261680489996252,3936,1680,0
0.729315848999704,1312,688,0
0.7333520369998041,5473,3248,0
0.7362956009997106,5777,2592,0
0.7403346329997476,400,2048,0
0.7434403130000646,2304,2064,0
0.747215413000049,3952,2448,0
0.7502810809996845,0,1792,0
0.7541864810000334,2048,1440,0
0.7571744429997125,2784,2608,0
0.7610892529996818,576,1376,0
0.764165896999657,3024,2144,0
0.7681039569997665,3120,3568,0
0.7711782259998472,224,592,0
0.775023180000062,2736,1952,0
0.7782740489997195,5409,3328,0
0.7820439089996398,880,1072,0
0.7851463289998719,3120,1792,0
0.7890127579998989,2304,1568,0
0.7920162229997914,2816,1872,0
0.7959270609999294,7937,2912,0
0.7989869569996699,512,2272,0
0.803063198000018,1040,1296,0
0.8061569080000481,5633,1200,0
0.8101304090000667,224,3024,0
0.8130741039999521,3920,1744,0
0.8170496200000343,4513,2304,0
0.8200375299998086,544,1792,0
0.8240802259997508,1792,1744,0
0.8270857079996858,3360,2032,0
0.8311513929998,2128,2384,0
0.8341837119996853,3408,2560,0
0.8380506049998075,4209,3072,0
0.8410167909996744,768,1808,0
0.8450182090000453,336,1184,0
0.8480960309998409,4881,2608,0
0.8520632780000597,3856,2576,0
0.8551193349999267,5809,2304,0
0.8590580089999094,1024,5889,0
0.8622223499996835,464,2048,0
0.8662413829997604,5985,7249,0
0.8693012449998605,304,1856,0
0.8732322099999692,8129,6321,0
0.8763323329999366,6913,2976,0
0.8803349119998529,800,4801,0
0.8833621859998857,0,2192,0
0.8872045719999733,4785,1760,0
0.8902648759999465,800,1216,0
0.8941685830000097,3504,1056,0
0.8973712349998095,2864,0,0
0.901264252999681,3520,1280,0
0.9042637409997951,3856,2080,0
0.9080693259998043,2912,1024,0
0.9113736099998277,1584,1600,0
0.9152211309997256,2224,2000,0
0.9181791739997607,3328,1952,0
0.9221554939999805,576,688,0
0.9252709749998758,2480,2576,0
0.9291474439996819,3328,2000,0
0.9322360349997325,2160,2640,0
0.9361505379997652,8482,2640,0
0.9392922009997164,576,2224,0
0.942380299999968,0,2480,0
0.9463604969996595,4801,5873,0
0.9494587429999228,1264,2656,0
0.9531459419999919,7841,3152,0
0.9572220380000545,6769,1440,0
0.9604003429999466,1632,2208,0
0.9641509129996848,112,2800,0
0.9673577439998553,6321,1792,0
0.9711469059998308,784,2112,0
0.9743098389999432,4817,2048,0
0.9780688659998305,3184,1936,0
0.9811076869996214,0,2432,0
0.9841884909997134,1280,1792,0
0.9881509409997307,4193,5393,0
0.991370471999744,1904,1792,0
0.9951401270000133,5153,3024,0
0.9989976899996691,1952,1840,0
1.0021362249999584,1280,2000,0
1.00602016799985,4609,2144,0
1.0092306129999997,1168,1280,0
1.0130735549996643,5425,1536,0
1.016262093000023,2560,1744,0
1.0201693939998222,27334,304,0
1.0232830759996432,8658,1616,0
1.0271963339996546,528,1440,0
1.0302714829999786,3040,1728,0
1.0341932279998218,7441,1280,0
1.0373010329999488,4801,1808,0
1.0410471259997394,1552,4881,0
1.0443212539998967,1232,1744,0
1.0482416019999619,8514,5681,0
1.051306729999851,1024,912,0
1.0551835940000274,4449,5409,0
1.058981553999729,2608,1456,0
1.062155898999663,3552,3376,0
1.0660544229999687,4561,3344,0
1.069159173999651,848,1824,0
1.0729877819999274,2576,1472,0
1.0761381259999325,5985,3232,0
1.0800272419996872,432,1344,0
1.0830270009996639,1488,2640,0
1.0869279730000017,7249,1280,0
1.0899265259999993,0,2000,0
1.0930107179997322,2208,2656,0
1.0971926899997015,4273,5809,0
1.1000175720000698,0,2192,0
1.104151907999949,2608,2352,0
1.1069432289996257,2400,3552,0
1.1111074979999103,4353,832,0
1.1141088939998554,3248,1200,0
1.1180992229997173,3616,1408,0
1.1211443969996253,544,1376,0
1.1251790950000213,1312,2064,0
1.1282036869997683,336,2576,0
1.1321921159997146,256,2720,0
1.1352066519998516,4385,2640,0
1.139078693999636,2400,2160,0
1.142046537999704,0,1776,0
1.146144583000023,6065,2112,0
1.149190949000058,1360,2736,0
1.1531906449999951,3840,2160,0
1.1563168519996907,5681,2256,0
1.1600981449996652,256,2224,0
1.1632678480000322,1232,1616,0
1.1672740159997375,3888,2816,0
1.1703682539996407,0,1008,0
1.174284489999991,4097,3840,0
1.1772886499998094,4353,2816,0
1.1804501229999005,0,2096,0
1.1843087570000534,1536,6177,0
1.18821896999998,10242,2352,0
1.1911927189999005,2992,2928,0
1.195278930999848,336,1120,0
1.1983341099999052,4016,2816,0
1.2011736709996512,0,1600,0
1.2053457389997675,1648,1264,0
1.2083798549997482,2640,2928,0
1.2122238809997725,2736,5137,0
1.215415297999698,7585,2096,0
1.2193068510000558,4881,3696,0
1.2222895699997025,0,1712,0
1.226075137999942,1856,0,0
1.229351024999687,3904,2896,0
1.2332666859997516,3840,1248,0
1.236348936000013,8482,2080,0
1.2394071929998063,0,2080,0
1.2432707190000656,3168,3648,0
1.2470453639998595,2304,2304,0
1.2503459039999143,4865,2736,0
1.2540308909997293,1360,1392,0
1.2572307400000682,3328,2016,0
1.2611520069999642,1408,3088,0
1.2641933529998823,2048,1584,0
1.2681199669996204,6369,2896,0
1.271389581999756,3728,1552,0
1.2751130849997026,4097,816,0
1.2783591889997297,2224,2016,0
1.2821879839998473,0,1904,0
1.2853865990000486,8946,3296,0
1.2892480679997789,1792,3040,0
1.29225944899963,2304,2352,0
1.2962823339998977,6657,2816,0
1.2993228559998897,0,1600,0
1.3022235329999603,0,1872,0
1.3062766729999566,5153,288,0
1.3093510999997306,176,3840,0
1.3132872779997342,4593,2576,0
1.3163304539998535,7057,2176,0
1.3202483579998443,800,2848,0
1.323322318999999,0,2416,0
1.3263799789997393,4305,2512,0
1.3303191609998066,4032,3104,0
1.3342107389999,4193,1536,0
1.337202781999622,5521,2544,0
1.3410098249996736,800,3056,0
1.3443160319998242,352,1888,0
1.3480162070000006,5985,2720,0
1.3511279429999377,2832,2480,0
1.3550442229998225,1968,2192,0
1.358206262999829,1248,2800,0
1.3620062850000068,176,2272,0
1.365116382999986,6145,2192,0
1.3690161459999217,1792,2320,0
1.3722057279996989,1824,1024,0
1.3759760169996298,9026,4497,0
1.379041400999995,1552,432,0
1.3819883879996269,0,2416,0
1.3859377969997695,10450,4721,0
1.3889642599997387,0,1568,0
1.3931239300000016,6113,6545,0
1.396182551000038,6753,2832,0
1.400133004000054,0,4705,0
1.4031606379999175,0,1008,0
1.4070625429999382,5473,2080,0
1.410016424999867,1472,1792,0
1.4140614620000633,4609,1712,0
1.4170957789997374,4321,2304,0
1.420213848000003,0,2304,0
1.423989286000051,768,6337,0
1.427104866999798,3856,2096,0
1.4311453309996978,1632,6145,0
1.4341933229998176,2224,3104,0
1.438139353999759,3696,2880,0
1.4419847019998997,1280,1248,0
1.4452786739998373,6465,2512,0
1.449164656999983,2640,2816,0
1.4522164390000398,2912,2640,0
1.456131004999861,7953,2592,0
1.4592529569999897,1248,2416,0
1.4622801900000013,0,2576,0
1.4663386219999666,8097,3600,0
1.4693047149999074,160,2928,0
1.4733105010000145,6321,2960,0
1.4770805099997233,5441,1808,0
1.4802904019998095,768,1232,0
1.4832928099999663,112,2048,0
1.4873322209996331,10770,4385,0
1.49110482199967,208,2144,0
1.4942196590000094,3808,2240,0
1.4982515960000455,1024,1904,0
1.5011816429996543,1264,1056,0
1.5053059509996274,2048,1952,0
1.5082366159999765,3696,2048,0
1.512078640999789,400,832,0
1.5152449489996798,6449,2784,0
1.5191127099997175,3696,2672,0
1.5221927379998306,944,2576,0
1.5262334300000475,3824,2048,0
1.5292946039999151,624,1856,0
1.5330317029997786,1888,1024,0
1.536349128999973,6145,2544,0
1.539270407999993,0,1792,0
1.5433014219997858,256,5121,0
1.5462665969998852,3856,1248,0
1.5501213769998685,0,5361,0
1.5533479529999568,4465,2160,0
1.5572101539996765,5201,3232,0
1.560274919999756,448,1056,0
1.5641504089999216,624,1184,0
1.5674065260000134,5377,2720,0
1.571189869999671,528,1312,0
1.5742614999999205,2304,1328,0
1.578302980999979,4337,3120,0
1.581352503999824,96,2032,0
1.5851941949999855,1696,2048,0
1.5882540349998635,5361,2608,0
1.5920690660000218,816,2000,0
1.5953927819996352,5889,2528,0
1.5992318759999762,2144,2592,0
1.602271066999947,336,2512,0
1.6061425139996572,4577,2016,0
1.6091968199998519,176,1856,0
1.6132384499996988,3584,1520,0
1.6163430560000052,7713,2000,0
1.6201912940000511,512,848,0
1.6231783379998888,560,1792,0
1.627227898000001,4945,2304,0
1.6303602039997713,768,1520,0
1.634144730999651,3248,1712,0
1.6373481219998212,6193,3600,0
1.6410425439999017,528,1584,0
1.6442348509999647,1904,2832,0
1.648019487000056,5857,1296,0
1.6512936999997692,3040,2256,0
1.6550405739999405,1360,3600,0
1.6583300689999305,3456,2928,0
1.6619888019999962,768,2240,0
1.6651357709997683,3232,1376,0
1.668947814999683,3744,1552,0
1.6720080410000264,2640,2192,0
1.6759227719999217,7345,4417,0
1.6789206489997923,0,2160,0
1.6831609659998321,704,2272,0
1.686223045999668,6561,3328,0
1.6898797909998393,896,1232,0
1.6932130149998557,7073,2752,0
1.6971660770000199,3744,2128,0
1.7002034600000115,1728,1936,0
1.7041183849996742,544,2048,0
1.7070736489999945,4257,3600,0
1.7100882629997614,0,1280,0
1.7141915829997743,5153,6689,0
1.7171537599997464,3328,2384,0
1.7212017990000277,4385,4032,0
1.7250914619999094,1024,1568,0
1.7279393179996987,4705,2032,0
1.7321529129999362,1904,2576,0
1.735191081999801,3072,2368,0
1.7389758799999981,2048,2832,0
1.7419262999997045,0,1584,0
1.7452346979998765,3424,1056,0
1.7490651129996877,4337,2656,0
1.753131399999802,6401,2208,0
1.7560192500000085,9154,3152,0
1.7600437569999485,560,2112,0
1.7633737669998482,848,2736,0
1.7672566480000569,4625,2016,0
1.7703736189996562,2048,2816,0
1.7741799719997289,4145,1744,0
1.7773638669996217,3952,2128,0
1.7804353669998818,64,784,0
1.7843188009996993,1072,7857,0
1.7872675429998708,4593,1584,0
1.7911880100000417,3376,3040,0
1.7943872749997354,480,2160,0
1.7981696199999533,5553,4369,0
1.8012495739999395,0,1312,0
1.805283620999944,832,3040,0
1.808227307999914,1840,1440,0
1.8122039029999542,5281,2496,0
1.815284378999877,4897,2480,0
1.8191816270000345,2784,2320,0
1.822292773999834,768,2000,0
1.826323579000018,416,3344,0
1.8293576880000728,0,1840,0
1.8332588640000722,4625,1664,0
1.8363925519997792,7457,2960,0
1.8400632439997935,1776,2640,0
1.8433456059997297,672,2512,0
1.8472290569998222,4705,1888,0
1.8503475160000562,1824,1904,0
1.8542581859996972,4321,3136,0
1.8571984499999417,2816,2160,0
1.8610936119998769,0,2112,0
1.8642055069999515,3904,3952,0
1.868096707999939,5473,2784,0
1.8712070639999183,2080,1552,0
1.8750422169996455,2304,2000,0
1.8782301219998772,3840,3600,0
1.8821848279999358,0,2560,0
1.8852407169997605,6481,2656,0
1.889084568999806,2608,3536,0
1.892197306000071,5217,2912,0
1.896213584999714,8338,2624,0
1.8992018369999641,2176,3280,0
1.903237500999694,144,2496,0
1.9062019190000683,5553,3072,0
1.9101975409998886,432,304,0
1.9133084959998996,4993,2608,0
1.917252415999883,6113,2272,0
1.9203245559997413,704,1488,0
1.923979835999944,208,2816,0
1.927185037000072,7073,5393,0
1.9303881000000729,1008,800,0
1.9341269530000318,5585,5777,0
1.9380080319997433,2208,2000,0
1.9410943959996985,1952,1344,0
1.945041874999788,2576,3488,0
1.948140821999914,5009,3056,0
1.9511931099996218,0,1584,0
1.9550984719999178,5473,5825,0
1.9590088779996222,2048,4353,0
1.96213494299991,3168,2896,0
1.965943003999655,5169,2016,0
1.968992495999828,144,3136,0
1.972876369000005,3888,2048,0
1.9759346999999252,6609,2672,0
1.980119107000064,1120,1520,0
1.983166104999782,1136,1984,0
1.9871345039996413,6433,1568,0
1.9900554539999575,864,1984,0
1.9941059279999536,2416,2064,0
1.9971608999999262,4689,3152,0
2.0011172770000485,0,2384,0
2.004153392999797,4209,2912,0
2.007856936999815,6065,3152,0
2.0111172369997803,2656,3248,0
2.0150198979999914,3184,1456,0
2.018163091999668,3152,3424,0
2.0220042679998187,464,1280,0
2.025074528999994,2864,2768,0
2.0291164089999256,1696,2480,0
2.032061942999917,2816,2368,0
2.03617063899992,7281,3648,0
2.0392508469999484,240,2192,0
2.0432652109998344,320,2304,0
2.0463587899998856,4673,2336,0
2.050240073999703,800,2864,0
2.0532248849999633,6913,3168,0
2.0570259900000565,4000,2848,0
2.060351069999797,16,1248,0
2.0640338419998443,176,1792,0
2.0671880879999662,5121,2864,0
2.0710867419998067,672,1024,0
2.074297292999745,2464,1888,0
2.0782030410000516,2560,2608,0
2.0812889949997952,0,1632,0
2.0843693359997815,512,1680,0
2.0881742500000655,3600,3296,0
2.0911764669999684,2480,1824,0
2.0952257300000383,6769,4113,0
2.0990789190000214,1616,2064,0
2.102123496999866,2992,3600,0
2.106025968999802,4657,1136,0
2.1090890199998285,1072,2320,0
2.113227383999856,5889,2208,0
2.1162263139999595,6913,2320,0
2.1192246269997668,0,1664,0
2.1233248829998956,3584,3424,0
2.127208144999713,4721,2112,0
2.1302940109999327,3008,3632,0
2.134248510999896,4721,1344,0
2.1373516359999485,4913,3232,0
2.141155157999947,544,2016,0
2.1443562389999897,1584,2336,0
2.1482583949996297,7393,1792,0
2.1513753330000327,2144,2656,0
2.1553154879998146,2816,1584,0
2.158154927999931,2336,1968,0
2.162026661999789,0,2656,0
2.1651922979999654,7265,2768,0
2.1691873079998913,1936,2784,0
2.1722424319996207,5569,1840,0
2.1762645669996346,7217,1840,0
2.1792232640000293,1824,1856,0
2.1832691820000036,432,2960,0
2.186329762999776,4593,1744,0
2.1902423899996393,656,2352,0
2.193211535000046,5713,2720,0
2.197084578999693,4753,2016,0
2.2003519749996485,160,800,0
2.2040622750000693,464,2672,0
2.207328549000067,5633,2656,0
2.211206005999884,128,2416,0
2.214294341999903,2224,4945,0
2.218245562999982,4593,1728,0
2.2213245089997145,1168,1296,0
2.225071466999907,1056,3328,0
2.2281894059997285,3264,1328,0
2.2321096579998994,1280,1696,0
2.2353287519999867,6401,2816,0
2.238985617999788,0,1840,0
2.242086826999639,48,1904,0
2.2454302629998892,3840,2384,0
2.24917094500006,5809,4113,0
2.2528720079999403,4433,1024,0
2.255978130999665,9458,3840,0
2.259004003999962,0,1744,0
2.2628656929996396,944,3952,0
2.2659352989999206,4561,1072,0
2.2698639430000185,1360,2064,0
2.2730615850000504,4897,2736,0
2.27717084599999,5713,7649,0
2.280201207999653,928,2208,0
2.2841923809996842,1088,7345,0
2.2871627639997314,5377,2256,0
2.2908680020000247,4337,2096,0
2.294876805000058,1280,1696,0
2.2980874749996474,4145,3296,0
2.3011771459996453,0,2080,0
2.305105535999701,768,1488,0
2.307925010999952,5489,2288,0
2.3120545159999892,3632,2048,0
2.3152029899997615,6945,3312,0
2.319132659999923,2720,5377,0
2.3220818649997454,416,2304,0
2.326132905999657,5393,7265,0
2.3291420319997087,0,1584,0
2.3331028039997364,3664,2064,0
2.336206578999736,5441,2816,0
2.340041256999939,1024,2752,0
2.343294830999639,256,3040,0
2.347300683999947,4833,1632,0
2.3503423459997066,0,2240,0
2.3533024399998794,3616,0,0
2.357192618999761,4721,6513,0
2.3602688599999055,832,1616,0
2.364172328999757,2352,1440,0
2.3673712279996835,3632,2256,0
2.3711864639999476,5777,4369,0
2.374404011000024,1696,2096,0
2.378303414999664,4145,2304,0
2.3813757240000086,768,2128,0
2.3853334659997927,7073,3120,0
2.3882784039997205,816,2304,0
2.3921495239997057,4721,2752,0
2.396180625999932,9986,2512,0
2.3993204079997668,1728,2096,0
2.40222647399969,0,1680,0
2.406276212999728,2912,880,0
2.4092454859996906,1760,1696,0
2.413267858999916,4097,6993,0
2.416394465999929,6065,3664,0
2.4202746030000526,0,6145,0
2.423330108999835,928,2672,0
2.4272529199997734,5665,1792,0
2.4303176199996415,0,1056,0
2.433418760999757,6737,2224,0
2.437325759000032,5889,3088,0
2.4403816229996664,0,1440,0
2.4442415739999888,0,1824,0
2.4473311029996694,5217,2720,0
2.451228257999901,1168,2016,0
2.4543469830000504,4097,2400,0
2.4583788499999173,2896,1360,0
2.462028301999908,864,1296,0
2.464970787999846,928,2640,0
2.46812311199983,4545,2800,0
2.4720556979996218,2928,2144,0
2.4751156170000286,5793,2656,0
2.4790315939999346,2048,3536,0
2.482183705999887,592,2544,0
2.4860054529999616,5089,2048,0
2.4891420139997535,624,2320,0
2.492954128999827,4097,2128,0
2.4959662639998896,7313,2464,0
2.499918202999652,256,1200,0
2.5028891199999634,80,1312,0
2.506816986999638,5809,2592,0
2.5098713449997376,144,1808,0
2.513867902999664,3056,1968,0
2.516883781999695,5457,3248,0
2.5208593549996294,592,2880,0
2.523867773999882,2816,1792,0
2.527804839000055,3664,1312,0
2.5308900019999783,2512,1712,0
2.534838147999835,2672,2112,0
2.537899511999967,2784,3536,0
2.541892772999745,96,2048,0
2.5448944609997852,4865,1872,0
2.548896154999966,2256,2464,0
2.551962698999887,4097,1568,0
2.5558969710000383,8450,3984,0
2.5589245319997644,1584,2224,0
2.56289840799991,768,3360,0
2.5659426590000294,6129,1504,0
2.5699084299999413,816,1696,0
2.572935258999678,3744,1344,0
2.5768906639996203,3120,1712,0
2.5798999609996827,0,1504,0
2.5828540649999923,0,1312,0
2.586872451999625,5889,7441,0
2.58994196499998,496,1312,0
2.5941433230000257,3072,6049,0
2.5971683899997515,4753,2432,0
2.6011618139996244,3376,4353,0
2.605104595999819,1328,1136,0
2.6081431549996523,4817,3904,0
2.6118778629997905,1232,1360,0
2.6151244729999235,6129,2848,0
2.6188733519998095,624,1760,0
2.6220088410000244,1520,1792,0
2.626158685000064,10530,3728,0
2.6291749409997465,768,1280,0
2.63305357299987,3120,1568,0
2.636138514999857,5537,3040,0
2.6399661639998158,0,1552,0
2.6430798269998377,1536,2336,0
2.6471023579997564,5297,2192,0
2.650225427999885,912,2592,0
2.654029810999873,3888,2304,0
2.657294525999987,4385,3680,0
2.661103551999986,256,1296,0
2.6641885079998247,2720,1952,0
2.6680892360000144,4016,672,0
2.6711983299996973,2896,2736,0
2.675081403999684,4032,2592,0
2.6783390609998605,3072,2288,0
2.682152970000061,400,1280,0
2.6853759929999796,3824,4353,0
2.6891249909999715,2352,2080,0
2.692189906999829,2144,2304,0
2.696135187999971,8001,1968,0
2.6991581309998764,368,992,0
2.7030578449998757,576,2368,0
2.7063310589996945,7169,2224,0
2.7100258909999866,1904,2400,0
2.7132292359997336,6209,1280,0
2.7172551159997056,4657,1792,0
2.720130988999699,768,1552,0
2.7241341799999645,816,1664,0
2.727296615999876,5985,1648,0
2.73017208400006,0,2016,0
2.7343035789999703,7153,5873,0
2.7380789169997115,4257,2224,0
2.7411314920000223,2336,2752,0
2.7452429879999727,432,3408,0
2.748167115999877,5729,1840,0
2.752055460000065,2672,1280,0
2.755392335999659,6065,2784,0
2.759064035999927,2080,1904,0
2.762196314999983,816,3184,0
2.766235988000062,4257,1936,0
2.769208884999898,1776,2848,0
2.7732608480000636,4865,2272,0
2.7763502729999345,5473,2400,0
2.7802111609998974,0,1696,0
2.7831831049998073,1760,2512,0
2.7870001229998707,4865,1616,0
2.7901346879998528,1024,2304,0
2.7940278519999993,3920,3024,0
2.797149497999726,2800,2464,0
2.8001725039998746,0,1888,0
2.8041014089999408,5793,3600,0
2.8080351829999017,3248,1792,0
2.811100331000034,992,1280,0
2.814995831000033,2288,1952,0
2.818302596999729,2848,2304,0
2.8210664439998254,0,1776,0
2.8249585349999506,0,976,0
2.82789682099974,5425,2304,0
2.8318706529998963,1312,1888,0
2.8350619359998745,7217,2928,0
2.8390106319998267,2000,2304,0
2.842076910999822,528,912,0
2.8450748010000098,6673,0,0
2.8488786200000504,0,2400,0
2.8520800279998184,3328,1328,0
2.856123462999676,7425,2400,0
2.858920274999946,2160,2000,0
2.8631307819996437,0,2816,0
2.866148479000003,5681,3840,0
2.8688910010000654,752,1296,0
2.873141592999673,4993,2400,0
2.8769535920000635,5025,2128,0
2.880152930999884,1232,1888,0
2.8831593169998087,0,2048,0
2.887048811999648,7153,5905,0
2.889960577999773,256,768,0
2.894072142999903,2816,768,0
2.897392917999696,2720,1824,0
2.9011028850000002,0,2960,0
2.904246040999624,2656,2048,0
2.9081155189996934,4353,1712,0
2.911174008999751,2816,2176,0
2.9152106709998407,3264,2480,0
2.918163709000055,2400,2512,0
2.9221159329999864,272,1440,0
2.9252382039999247,3136,2352,0
2.929253609999705,3280,1424,0
2.9323569619996306,3760,2080,0
2.9361194680000153,5169,2416,0
2.9392482559997006,1120,2416,0
2.9432445699999334,0,2096,0
2.946177188999627,6737,2160,0
2.9502416499999526,368,1184,0
2.9533003459996507,3328,1344,0
2.9570167950000723,5121,2480,0
2.9601655309998023,0,1328,0
2.96333836399981,0,1792,0
2.967134707999776,5393,1408,0
2.9701930379997066,96,2064,0
2.974113895999835,5297,1216,0
2.977133481999772,3216,1584,0
2.980249728999752,0,1280,0
2.984325412999624,3840,3952,0
2.988194132999979,6417,2336,0
2.9911214859998836,2528,1792,0
2.995127542999853,3264,1312,0
2.9983760019999863,3248,1296,0
3.001401486999839,0,832,0
3.005189601999973,2560,7905,0
3.0082304779998594,5601,1808,0
3.0123324839996712,4064,4561,0
3.015356786999746,7233,1680,0
3.0192184289999204,4897,4577,0
3.0222247879996758,0,2112,0
3.0261087409999163,2592,1968,0
3.029377175999798,752,1600,0
3.033133400999759,7377,2512,0
3.0362173729999995,6145,3328,0
3.0400928340000064,192,7681,0
3.0432420359998105,256,2288,0
3.047138519999862,7681,1200,0
3.0503686170000037,704,736,0
3.054152542999873,5057,2304,0
3.0571878920000017,4545,1808,0
3.0609821489997557,0,2784,0
3.0641815839999254,2160,2384,0
3.0681402479999633,4209,2496,0
3.071222492999823,3024,1968,0
3.0751367039997604,2800,1792,0
3.0782344790000025,3472,2784,0
3.08211548700001,32,1024,0
3.085142512999937,4897,1632,0
3.0890601369997057,2048,1872,0
3.0921360620000087,2304,800,0
3.0960578969998096,8658,2864,0
3.0991490179999346,1472,2000,0
3.1021867569997994,0,1776,0
3.1060951179997573,9170,4449,0
3.109176520999881,416,2384,0
3.113092282999787,7857,6513,0
3.116177356999742,6401,2000,0
3.120010914999966,3584,3040,0
3.122942631999649,0,1792,0
3.1269220859999223,3824,2720,0
3.1299413319998166,1360,416,0
3.133886803999758,5889,2032,0
3.1371746889999486,4497,3168,0
3.1410848789996635,0,1984,0
3.1440607409999757,3024,2512,0
3.148083487999884,5889,2464,0
3.1511744939998607,1840,1200,0
3.15506554600006,6321,1280,0
3.15808875599987,2384,1296,0
3.162032192999959,0,2272,0
3.1650478729998213,6097,2128,0
3.168981027999962,1392,2064,0
3.1719834329996957,4833,2080,0
3.1761107949996585,6833,1616,0
3.1790708700000323,1136,1392,0
3.1829656299996714,0,2048,0
3.1861751279998316,4097,2368,0
3.189161672999944,256,912,0
3.193147256999964,7665,3760,0
3.1970288129996334,5409,3424,0
3.20018065999966,1344,1552,0
3.2042490690000704,1280,2160,0
3.2073273199998766,5809,2912,0
3.2111376069997277,1440,1392,0
3.214192455999637,2784,2384,0
3.218277102999764,2656,1536,0
3.221345619999738,832,1536,0
3.2252851549997104,784,1584,0
3.2282154380000065,4353,2272,0
3.2321291629996267,5377,2048,0
3.2352813429997695,7009,2256,0
3.239164712999809,1760,1792,0
3.2422137240000666,288,1568,0
3.2462599179998506,4865,1968,0
3.2491972640000313,0,1536,0
3.253274300999692,6961,1280,0
3.2563661279996268,5665,2976,0
3.260094749000018,976,2928,0
3.263351897999655,1232,2128,0
3.26710158700007,6721,1584,0
3.2702402479999364,112,1616,0
3.274027763000049,3408,1792,0
3.277324767999744,4305,2048,0
3.2812424469998405,816,2544,0
3.2843335679999655,1808,2048,0
3.2882400019998386,3168,2032,0
3.2911342429997603,992,1168,0
3.2952940810000655,1792,2272,0
3.298213308999948,2320,2304,0
3.3020750559999215,272,1600,0
3.30539219100001,2512,1744,0
3.308992585999931,3136,320,0
3.312223729999914,4273,3344,0
3.316091607999624,7953,1760,0
3.3192076509999424,768,1936,0
3.3222915649998868,0,1984,0
3.326127108000037,11154,4353,0
3.329180454999914,320,864,0
3.333295617999738,3968,4209,0
3.336265940999965,4673,1552,0
3.3401134079999792,1632,2544,0
3.344203204999758,1040,1744,0
3.34718007399988,5905,2544,0
3.351267216999986,1040,2096,0
3.35436469699971,2128,1248,0
3.358050300999821,3008,2272,0
3.3611587880000116,0,1792,0
3.3650512009999147,1552,1984,0
3.368224086999817,5521,2480,0
3.372111738000058,2304,1776,0
3.3752321570000277,7169,3120,0
3.379118841000036,480,1888,0
3.3821619619998273,864,2304,0
3.3859871109998494,4097,576,0
3.3890830870000173,4625,2816,0
3.393019607000042,2848,2256,0
3.3961481279998225,8690,2320,0
3.3991535199997998,0,2224,0
3.4030706209996424,0,7025,0
3.4061622059998626,4225,1712,0
3.409211218999644,0,1088,0
3.4130233559999397,6257,3152,0
3.416921548999653,5121,2976,0
3.4199204940000527,0,1008,0
3.4229632940000556,2288,2848,0
3.42687204799995,4609,1808,0
3.430162791999919,752,2096,0
3.4341240029998517,2848,7217,0
3.437083736999739,4833,3232,0
3.44111335999969,384,6689,0
3.444121815000017,512,1808,0
3.44805141300003,2512,2224,0
3.451146546000018,1520,1264,0
3.455084087999694,4897,4337,0
3.458075602000008,1808,2720,0
3.4619034909997026,4273,3840,0
3.466024298999855,4353,2304,0
3.4689765299999635,3696,2800,0
3.4730220289998215,3552,1584,0
3.4760773149996567,6449,2000,0
3.4801571849998254,704,1328,0
3.483253352999782,1008,1824,0
3.487074198999835,4529,2256,0
3.4902355419999367,432,960,0
3.494081255999845,4080,2320,0
3.49723964299983,5121,2384,0
3.5004019509997306,0,1440,0
3.5043016999998144,112,7249,0
3.507269437999639,4064,2224,0
3.5110691469999438,2496,848,0
3.5143820749999577,2304,4593,0
3.518140915999993,4000,6929,0
3.5213105529996938,112,1104,0
3.5251402079998115,560,640,0
3.5282271159999254,2352,3184,0
3.5321711899996444,2304,1328,0
3.5353703389996554,5809,2000,0
3.5390770519998114,4529,3392,0
3.5422304599997005,0,1360,0
3.5461156359997403,5777,1328,0
3.5491235330000563,0,2480,0
3.552404648999982,3616,1744,0
3.5561814190000405,8450,2608,0
3.5592070239999885,560,1280,0
3.563323061999654,3728,4353,0
3.567105535999872,5649,2576,0
3.5703188779998527,2512,2000,0
3.574093511999763,3664,1280,0
3.577222039999924,4961,3728,0
3.580414097999892,0,2816,0
3.584320046999892,848,6385,0
3.5872706499999367,4657,2304,0
3.591134444999625,1968,4064,0
3.594362424999872,768,1776,0
3.5980826199997864,3248,4449,0
3.6013017870000112,0,2240,0
3.6052524679998896,3088,1376,0
3.6081524019996323,2800,2560,0
3.6121500919998653,1680,1536,0
3.615393459999723,6481,3360,0
3.6192555039997387,3392,464,0
3.6222232999998596,112,1616,0
3.626113938999879,4689,976,0
3.6290867989996514,0,2528,0
3.633162303000063,4433,1616,0
3.6361922159999267,6801,3552,0
3.6400351209999826,464,1552,0
3.6433231799996975,2160,3472,0
3.6473257989996455,4817,1104,0
3.650272890999986,736,2224,0
3.6541678509997837,6081,1056,0
3.6571847049999633,4977,1872,0
3.6610959729996466,224,2096,0
3.6642271919999985,1024,2688,0
3.6681246650000503,5937,2048,0
3.671219603999816,1696,2448,0
3.6751821849998123,4289,2224,0
3.678165307999734,3104,2320,0
3.6820736919999035,672,2160,0
3.685195171000032,4497,2576,0
3.689063769999848,1680,2832,0
3.6921334839998963,2816,912,0
3.6960322790000646,9378,3376,0
3.699159148000035,976,1648,0
3.7030509399996845,640,2048,0
3.706128126999829,4561,1552,0
3.7099433660000614,432,2480,0
3.7130013619998863,5025,2144,0
3.7169037189996743,5377,5089,0
3.7198901940000724,0,736,0
3.7229026609998073,0,2720,0
3.7271112199996423,3872,688,0
3.7301422519999505,176,2608,0
3.7340931419998924,3632,1392,0
3.737101874000018,4513,2368,0
3.739885626999694,0,1744,0
3.744056313999863,1696,5441,0
3.7471611779997147,2544,1808,0
3.751127303999965,4977,3536,0
3.754078818999915,1792,784,0
3.7581532579997656,4064,3296,0
3.7610823529998925,192,1792,0
3.7650406249999833,5889,3104,0
3.768950670999857,2800,1536,0
3.771991780999997,3824,2048,0
3.776111373999811,8946,3504,0
3.7791745679996893,1072,1312,0
3.782138439999926,0,880,0
3.7862698799999635,1088,2288,0
3.7891556259996833,0,1280,0
3.7930628129997785,4817,1904,0
3.796288507999634,6561,1904,0
3.799364381000032,0,2304,0
3.803164435999861,5377,2912,0
3.8069947310000316,6065,1696,0
3.810330827999678,2576,2624,0
3.814006808999693,4177,1584,0
3.817304724999758,4193,2400,0
3.8212100089999694,784,1776,0
3.8241303769996193,1456,3664,0
3.8282135249996827,2896,2240,0
3.831329681999705,2704,2720,0
3.835327718999906,4273,1200,0
3.838378351999836,2288,2992,0
3.8421313179997014,80,2304,0
3.8453375599997344,3712,1808,0
3.8492165029997523,2672,1792,0
3.8522157359998346,4337,1888,0
3.856221099999857,6913,2304,0
3.8593132199998763,0,2416,0
3.8630567779996454,512,2304,0
3.8663367760000256,6129,1792,0
3.870111338999777,848,1792,0
3.873316426999736,4305,2320,0
3.877141281999684,2928,2160,0
3.880205141999795,288,2416,0
3.8840901829998984,1056,1696,0
3.8873580979998223,4145,2736,0
3.8910867639997377,912,1312,0
3.8942141160000574,2384,3280,0
3.8981385779998163,3072,1520,0
3.901076035999722,144,2752,0
3.9050761189996592,784,2560,0
3.9081668280000486,4209,3376,0
3.912108945,2848,1248,0
3.915376104999723,6321,3296,0
3.919107650999649,912,2624,0
3.922186892999889,2048,2928,0
3.926045428999714,4000,1504,0
3.9292259989997547,2192,2192,0
3.9330024040000353,3584,1296,0
3.936371897999834,6545,2736,0
3.940066707999904,592,1440,0
3.9433743549998326,1152,2320,0
3.947170795999682,6273,2016,0
3.9501529199997094,1456,1504,0
3.9542734510000628,4849,608,0
3.9572467009998036,4657,2048,0
3.961270318000061,1072,1456,0
3.9642664469997726,768,1568,0
3.968162785000004,720,1504,0
3.9712517449997904,2048,2064,0
3.975066475999938,5649,2608,0
3.978183023999918,2880,2224,0
3.9820757719999165,0,6449,0
3.9851377729996784,3904,2512,0
3.989036767000016,1136,912,0
3.992136272999687,2704,1040,0
3.9960644499997215,8626,2096,0
3.9991550169997936,496,2192,0
4.00304151499995,688,2192,0
4.006023481999819,5985,2208,0
4.009933408000052,1168,2048,0
4.012969373000033,4785,1632,0
4.01690850399973,5745,2416,0
4.020180306999919,1024,80,0
4.023089196000001,0,2512,0
4.027006308999717,3840,7169,0
4.03018885199981,192,1792,0
4.03412845999992,5553,6481,0
4.037079274999996,2416,2080,0
4.041033395999875,3600,3584,0
4.044112559000041,848,1968,0
4.048110602999714,2848,5729,0
4.051142181999694,1824,2672,0
4.055098367000028,7793,3728,0
4.058861567999884,1440,2992,0
4.062033230999987,928,3040,0
4.065996592999909,5793,1280,0
4.0690427069998805,912,1952,0
4.0729354229997625,6913,3248,0
4.0760986059999595,6945,2960,0
4.079072969999743,0,1280,0
4.083148445999996,0,192,0
4.086184541999955,5201,2352,0
4.089196497999637,0,2224,0
4.0930440180000005,4865,3728,0
4.096215865999966,5745,2160,0
4.100133278999692,2992,3072,0
4.10417252499974,2304,2304,0
4.107125752999764,6929,3600,0
4.110197309999876,864,176,0
4.1140353949999735,2336,5665,0
4.117942202999984,3792,2560,0
4.121144209999784,4000,3696,0
4.124277559999882,880,1280,0
4.1281402019999405,6481,1968,0
4.132057151000026,2288,2240,0
4.135225827999875,6321,2608,0
4.13905630499994,2096,2096,0
4.142160348999823,1520,2768,0
4.146033147999788,4769,1712,0
4.149302078999881,112,2416,0
4.1532418339998,5921,1280,0
4.156147198999861,6689,1776,0
4.160226041999977,1056,1328,0
4.163207597999644,400,2096,0
4.167183443999875,5793,864,0
4.170344039999691,1456,2848,0
4.174034128999665,4465,2800,0
4.177326806999645,3504,2976,0
4.181103032999999,160,2304,0
4.184158087000014,112,2416,0
4.188097998999638,4369,1328,0
4.191171368999676,1792,2096,0
4.195210267999755,3584,1280,0
4.19814908699982,2912,2768,0
4.202282823999667,256,1776,0
4.2052478059999885,4305,2336,0
4.209066476999851,1440,2240,0
4.212225971999942,5025,2704,0
4.216097088999959,7729,6545,0
4.219260819999818,992,1232,0
4.223057561999667,1168,2400,0
4.226365685000019,5105,3344,0
4.230268238000008,512,5457,0
4.233214971000052,5105,2528,0
4.237268650999795,3936,6369,0
4.240211543999976,0,2048,0
4.244083305999993,1504,2992,0
4.2473465449998,4865,1952,0
4.251133432999723,1424,1760,0
4.254203512000004,2672,2144,0
4.258263179999631,3840,2304,0
4.261279731999821,0,1040,0
4.265089005999926,1792,1104,0
4.268317700999887,3552,2304,0
4.272029956999631,2992,1280,0
4.275249765999888,9394,2864,0
4.279082815000038,1296,1904,0
4.282060376999652,0,2304,0
4.286045483999715,3520,2560,0
4.2891194859998905,16,1504,0
4.292980685999737,5121,2304,0
4.296110191000025,6801,3248,0
4.299914951999654,256,1840,0
4.302943136000067,2032,2720,0
4.306859973999963,6433,960,0
4.309879656999783,528,1296,0
4.3138809489996675,3152,1392,0
4.31695465499979,5377,3248,0
4.320111937999627,0,1536,0
4.324119379999956,0,9538,0
4.327152926000053,7345,1248,0
4.331028223999965,1200,1360,0
4.3340902189997905,3392,1952,0
4.338067807999778,3824,1968,0
4.340989908999745,0,320,0
4.344198885999958,144,1728,0
4.348138900999857,5073,8113,0
4.351174955999795,1936,1744,0
4.355192478999925,5185,4113,0
4.358149466999748,0,1712,0
4.3619192839996686,256,1280,0
4.364927410999826,5985,2912,0
4.369035027999871,0,1712,0
4.372072338999715,4289,208,0
4.376156623000043,8914,2080,0
4.379281011999865,2320,2224,0
4.382956885999647,592,2800,0
4.386147556999731,4561,2064,0
4.389976529999785,816,2304,0
4.393126403999759,8626,2816,0
4.397083827999722,5345,1072,0
4.400156096000046,2016,1696,0
4.403199447999668,0,3152,0
4.407057144999726,4353,4561,0
4.41017316999978,336,1328,0
4.414087905999622,4961,7089,0
4.417358901999705,2848,2096,0
4.421184050999727,4097,2816,0
4.424178512999788,0,1840,0
4.428285224999854,3280,2080,0
4.431213157999991,848,1280,0
4.43531300199993,4593,2608,0
4.438219464999747,2720,2000,0
4.442115203999947,0,1344,0
4.445116468999913,4353,2112,0
4.449242504999802,1056,2304,0
4.452173759999823,2240,1024,0
4.456048133999957,8418,4000,0
4.4593318199999885,544,1872,0
4.462199512999632,0,1056,0
4.466120527999919,8129,3680,0
4.469168349000029,416,1424,0
4.473163934999775,5809,3872,0
4.476952691999941,4785,2560,0
4.480085372999838,1872,1184,0
4.483998596999754,208,3072,0
4.487110267999924,5105,3312,0
4.490956571999959,768,1264,0
4.494106334999742,5121,3984,0
4.497959929999979,2112,1696,0
4.500954350000029,2208,2640,0
4.504901638999854,2384,912,0
4.507902970000032,2880,2096,0
4.5117832729997644,1248,2112,0
4.5151781770000525,7105,2224,0
4.519053532999806,2480,3168,0
4.52203770999995,0,2256,0
4.525875928000005,3552,1968,0
4.529081209999731,2832,3504,0
4.532865053000023,6833,2816,0
4.536117988999649,7217,2816,0
4.54002656900002,1392,1760,0
4.542836621999868,816,1792,0
4.546875177999937,4016,2784,0
4.54999332899979,448,0,0
4.553138366999974,5985,2304,0
4.557115943999634,4833,6209,0
4.560030092000034,0,1840,0
4.563903600999765,448,1648,0
4.566937294999661,4209,2160,0
4.570905516000039,1440,2176,0
4.573975879000045,3584,2576,0
4.577897666999888,1904,2848,0
4.5809493090000615,240,1648,0
4.584932466999817,3552,1968,0
4.587989381999705,3024,2784,0
4.591929818999688,3408,2288,0
4.5950004719998105,8610,2160,0
4.598948730999837,1792,7425,0
4.601908742999967,0,2048,0
4.606053357999826,4465,1744,0
4.60886949199994,0,2144,0
4.6130740670000705,4016,1680,0
4.6159228749997965,7937,3328,0
4.618934801999785,272,784,0
4.622929569999997,4289,3840,0
4.627061371999844,6817,1648,0
4.630122641000071,2640,2272,0
4.63310538199994,5025,0,0
4.636932676000015,3584,8290,0
4.639975322999817,0,1024,0
4.644110179999643,128,3168,0
4.647101919999841,4641,2496,0
4.6512575149999975,1456,2560,0
4.65429856899982,2624,1872,0
4.658094242000061,2400,2304,0
4.661250337999718,0,2208,0
4.664235262999682,432,2160,0
4.668165335999674,9234,3664,0
4.671140898999965,0,336,0
4.675096808000035,3840,2512,0
4.678091419999873,2160,2832,0
4.68195002199991,0,1424,0
4.685233349999635,5841,2304,0
4.68905728999971,1280,1472,0
4.692174311999679,3344,1728,0
4.696064293999825,8177,2496,0
4.699074178000046,1792,2720,0
4.702250539000033,32,464,0
4.706103797999731,6913,3472,0
4.710181661999741,1616,1280,0
4.713346445999832,5073,3408,0
4.717129024999849,3952,1792,0
4.7202991389999625,0,1712,0
4.723233327999878,304,1904,0
4.727025400999992,5153,6049,0
4.7303811799997675,1584,1568,0
4.734269356999903,6657,4385,0
4.737347234000026,1296,64,0
4.741197517999808,0,3328,0
4.744292716000018,2304,3328,0
4.748214175999692,3664,1840,0
4.751289198999984,2048,496,0
4.75524687799998,5265,1280,0
4.758312800999647,2992,1536,0
4.762024100999952,0,2656,0
4.765336112999648,5185,2528,0
4.769040656000016,2048,2464,0
4.772330322000016,4865,2304,0
4.776192480999725,8450,3072,0
4.779180493999775,960,1376,0
4.782222864999767,0,1776,0
4.786263293000047,3088,6913,0
4.789134054999977,272,2096,0
4.793125814999712,6913,1488,0
4.797107261999827,4641,2048,0
4.800063197999862,4625,3584,0
4.8039596559997335,1184,3376,0
4.807024829000056,4881,2816,0
4.811036500999762,1200,1072,0
4.814103975999842,2688,3296,0
4.818033036999623,4721,3008,0
4.821149126999899,1536,2816,0
4.825005214999692,864,1040,0
4.828037722999852,4609,2352,0
4.831899297999826,2992,1600,0
4.8349649839997255,5793,2272,0
4.838905550999698,1136,2576,0
4.841873882000073,0,1392,0
4.845845330999964,4257,2304,0
4.8488879409997026,656,2656,0
4.8528705179996905,5153,3024,0
4.855866175999836,7025,2464,0
4.858894163000059,0,1840,0
4.86286888099994,288,7009,0
4.8658924779997506,6225,1712,0
4.86997498799974,1104,8658,0
4.872877030999916,3424,1392,0
4.876782842000011,6145,3328,0
4.879822572999728,0,2096,0
4.882824289999917,0,0,0
4.886792485999649,3760,2816,0
4.88979226399988,848,2048,0
4.8937899499997,4465,1024,0
4.896836654999788,1600,2656,0
4.900810034999722,912,2816,0
4.903829312999733,2112,1280,0
4.907811978999689,1648,2304,0
4.910834969999996,3296,2128,0
4.914766031999989,5025,5889,0
4.918813501999921,3072,2496,0
4.921864449999703,2656,3536,0
4.92586302699965,4609,1232,0
4.928837082999962,1312,2128,0
4.932827491999888,3840,1824,0
4.935848757999793,5169,2288,0
4.939825980000023,768,1792,0
4.942842714999642,1072,4945,0
4.946819575000063,5201,2560,0
4.949841453999852,48,2032,0
4.95384297199962,2992,1344,0
4.956847806000042,2304,1712,0
4.959829478999836,0,2400,0
4.963813446999666,1904,6401,0
4.966837852000026,4353,2704,0
4.9710359799996695,4016,3184,0
4.975041842999872,2400,1968,0
4.978204199999709,2928,3600,0
4.98114634600006,0,2800,0
4.985017651999897,1776,4433,0
4.988072525000007,3536,2080,0
4.992061453999668,6625,5553,0
4.995075111999995,8610,2384,0
4.998903544999848,2192,2816,0
5.002038366999841,608,2672,0
5.00605386899997,11170,3264,0
5.010111841999787,1088,1488,0
5.0130963389997305,5665,3360,0
5.017075990999729,3504,1328,0
5.020180449999771,0,944,0
5.023250481999639,720,4289,0
5.027252083999883,4385,6401,0
5.030369857999631,1024,1536,0
5.034130690999973,3488,5377,0
5.038036167999962,1840,2288,0
5.041141805999814,2928,2592,0
5.045031856999685,864,1232,0
5.048306845999832,6257,3584,0
5.052035516999695,2144,1168,0
5.055223849999948,7745,2272,0
5.059022472999914,1472,1360,0
5.062127237999903,784,2000,0
5.066086605999772,5937,2736,0
5.0691764489997695,1456,2880,0
5.073012099999687,3088,2160,0
5.076139375999901,5969,2736,0
5.080049357000007,0,1712,0
5.083296478999728,2640,2720,0
5.087223624999751,5345,2208,0
5.090125087999695,1520,1856,0
5.094100637999873,5377,3152,0
5.097336639999867,3072,1792,0
5.100270329000068,0,1248,0
5.104297281000072,4401,4016,0
5.108069210999929,4064,2448,0
5.111308746999839,3040,1904,0
5.115232354,3888,2848,0
5.118068778999714,2624,2048,0
5.12199523199979,336,1808,0
5.125096927999948,7105,2512,0
5.128993370999979,672,1712,0
5.1321421190000365,6145,2528,0
5.136026176999621,7953,2864,0
5.139143603999855,1024,2304,0
5.142146493999917,0,1776,0
5.146059176999643,9074,3600,0
5.149966619999759,1072,2048,0
5.1529723559997365,5841,2224,0
5.156878293999853,4000,1552,0
5.1598941689999265,1168,1440,0
5.163890444999652,1440,3376,0
5.1670500000000175,4689,3264,0
5.171030386999973,256,2528,0
5.174034572999972,2816,2288,0
5.178012768999906,960,2912,0
5.181067847999657,624,800,0
5.184094038999774,752,2080,0
5.188054072999876,7553,2992,0
5.192075853000006,5265,1968,0
5.1951447269998425,5377,1856,0
5.198859658999936,3504,2992,0
5.202101892999963,8418,3568,0
5.20585247300005,6401,2112,0
5.208988850999958,1808,1072,0
5.213096872999813,9490,1872,0
5.21618024099962,11570,1376,0
5.220096139999896,6049,6913,0
5.223118487999727,2656,736,0
5.227124919999824,6193,3056,0
5.230252540000038,1296,1744,0
5.234266663999733,7217,4209,0
5.238087889999861,10914,2256,0
5.241321290999622,12627,2624,0
5.245264624999891,2304,2128,0
5.248204185999839,2128,3072,0
5.2522632830000475,2736,3072,0
5.2552981779999755,1104,1792,0
5.259130589000051,10354,7025,0
5.263232167999831,40953,2512,0
5.266148990999682,38985,2080,0
5.2700821579996955,7377,256,0
5.273170194999693,32087,2064,0
5.277144278999913,8850,1280,0
5.2804067699998996,24533,2224,0
5.284065876999648,13059,3104,0
5.288051529999848,2816,2016,0
5.2910856769999555,8546,2208,0
5.295110574999853,7937,1472,0
5.298184301999754,4529,2400,0
5.302084894000018,26470,0,0
5.305262025000047,25958,1552,0
5.309064414999739,11602,2048,0
5.312312835999819,4513,1760,0
5.316189627999847,65535,8482,0
5.320212226999956,25350,1024,0
5.323058788999788,736,1280,0
5.327073065999684,16115,1568,0
5.330373761999908,26390,1840,0
5.334305086999848,30423,1136,0
5.338015947999793,35224,1568,0
5.341317332000017,4593,1328,0
5.34511550499974,2880,3328,0
5.348075768999934,1664,2320,0
5.352097654999852,6641,2416,0
5.355394950999653,11058,1696,0
5.359199393999916,0,2816,0
5.362155970000003,22341,1824,0
5.366107460999956,20821,2224,0
5.36920698799986,5169,896,0
5.372935514999881,0,1792,0
5.376149383999746,7009,3360,0
5.380085513999802,2464,864,3328
5.3833481619999475,9218,1488,0
5.38712464199989,8962,4449,0
5.3901210959998025,976,992,0
5.394216598999719,3248,1120,0
5.397143743000015,6913,1152,0
5.40126227599967,18580,1840,0
5.40428010100004,2784,1456,0
5.408132101999854,8482,2832,0
5.412020623999979,9698,1872,0
5.415340195999761,15843,2096,0
5.419043976000012,15443,1776,0
5.422197708999647,9442,1584,0
5.426073527999961,6049,1520,0
5.429183623999961,5745,1088,0
5.433167727999717,10610,6049,0
5.43703276899987,9314,1664,0
5.4401052789999085,2848,1040,0
5.4440460959999655,4401,2816,0
5.4470233349998125,21013,1712,0
5.450964787999965,1152,2208,0
5.453971144999741,9474,3104,0
5.45791971799963,26966,1280,0
5.461836910999864,10210,976,0
5.465068591999625,43722,7889,4673
5.468890938999721,9138,7473,0
5.4721098410000195,8914,5729,0
5.4758658010000545,30263,6241,0
5.480121632999726,5777,4193,0
5.483119319999787,56781,2336,0
5.4870556269997905,10082,1312,0
5.490160887000002,23397,1488,0
5.494111483999859,28246,1968,0
5.498089910999624,27862,2192,0
5.50115240399964,7649,1648,0
5.505026037999869,17012,352,0
5.50817120299962,55325,1824,0
5.5120107309999185,1968,5649,0
5.516097673999866,11602,1440,0
5.519035767999867,5889,3328,0
5.522278935000031,960,592,0
5.526271036999788,19908,1936,0
5.530116386999907,24037,1024,848
5.533206209999662,9058,1312,0
5.537097473999893,10386,4385,0
5.541197990000001,10930,1904,0
5.54422389399997,4016,1648,0
5.548142914999971,12931,4064,0
5.551183089000006,1120,1520,0
5.555263809999815,10802,5857,960
5.5590471189998425,2000,2576,3920
5.563039460999789,16115,2096,3744
5.56613731599964,8738,2544,0
5.570085657999698,976,14611,1712
5.574102995999965,11618,7265,11058
5.5780467059998955,2640,1952,0
5.5811473320000005,5473,992,0
5.584963414999947,11458,1264,0
5.587981166999725,16724,2512,0
5.591893710000022,832,4401,0
5.59492057999978,256,2480,0
5.598850476999814,2960,2208,0
5.601906446999692,14515,1584,0
5.60585425599993,14611,4273,0
5.609831312999631,12787,432,0
5.612853866000023,752,1488,0
5.616811354999754,832,4865,0
5.619821948999743,6241,1600,0
5.622857761999967,32,2160,0
5.6268036599999505,4769,7377,0
5.630854373999682,3776,720,6033
5.633894495999812,19140,1872,0
5.637851769000008,8290,880,0
5.640877440999702,1456,8418,0
5.644841809999889,2560,528,4241
5.647886345999723,512,1872,0
5.651809968999714,7969,10498,0
5.655804625999735,9138,2192,0
5.6590647509997325,768,2096,0
5.663039300000037,1744,1344,0
5.666132325000035,0,1616,0
5.668923121999796,3680,2320,0
5.672809018999942,17060,560,0
5.677104100999713,23557,2832,640
5.680169844999909,2352,688,2976
5.683914841999922,1280,7313,0
5.687872953999886,8658,3696,1024
5.691810336999879,3712,5585,8722
5.694849277999765,4113,2656,0
5.6988372749997325,4609,688,0
5.701859342999796,1552,2528,0
5.705823060000057,10482,2832,0
5.708895718999884,10210,1056,0
5.71287884000003,15139,9218,1872
5.716862320000018,12563,3040,0
5.71987146299989,6401,7345,0
5.723866430999806,18964,12547,0
5.72786003300007,15027,1568,8434
5.7308820329999435,4833,3936,0
5.734866089999741,9874,3760,0
5.738778957999784,10466,1024,0
5.741867835999983,1376,1152,0
5.745865770999899,13731,5745,0
5.748883707999994,8274,4000,0
5.75286241699996,10034,768,0
5.756853581999621,10498,1456,7473
5.760833457999979,9890,1056,4097
5.763868566999918,1024,8802,0
5.767862230999981,6049,4849,18404
5.771848571999726,17332,3680,14163
5.774885886999982,304,3312,0
5.778851645000032,0,3472,0
5.78183894599988,128,3072,0
5.785819032999825,8930,768,0
5.788872859999628,1200,1712,0
5.792856904000018,4353,1632,0
5.7959284680000565,3152,2096,48
5.80005666399984,7089,1968,1792
5.804033375000017,0,1872,8898
5.807125631999952,5121,7281,5169
5.811074992999693,14003,3664,0
5.81506611299983,2144,3744,6577
5.818847182999889,7313,1120,20917
5.822859246000007,7441,3872,14083
5.826162911999745,23861,1760,928
5.830135403999975,0,208,0
5.83312196299994,2656,4449,0
5.836152175999814,432,5377,0
5.8401803550000295,1472,2336,0
5.843797682000059,1792,4417,0
5.847102853999786,1072,2560,0
5.851047875999939,6145,1312,0
5.854117500000029,14675,11810,0
5.858113091999712,3600,1184,0
5.861076783000044,0,6577,0
5.865049267999893,7649,800,0
5.86815048499966,2816,1184,0
5.871993273000044,19492,1392,0
5.875120634999803,9218,7137,0
5.879156540999702,14131,1872,2304
5.8832260639997,8177,13555,0
5.886332718999711,10850,1760,0
5.890157437999733,3184,4769,5121
5.894243770999765,6561,784,1248
5.89819007899996,10050,1808,0
5.9012851399998,112,3936,5393
5.905093457000021,11714,8882,0
5.909029416000067,13107,624,2992
5.912287487999947,800,22341,0
5.9161813339997025,2304,1136,0
5.920116035999854,10642,5713,992
5.923101557999871,64,11522,0
5.927108628000042,10930,5889,2304
5.931178608999744,8081,13939,0
5.934303599000032,9746,6097,0
5.938153119999697,14003,480,4865
5.942055962999802,2320,8722,4865
5.945235655000033,19188,6625,80
5.9491795429999,10450,2992,3520
5.953230510999674,12210,3328,0
5.95702139299965,12851,4753,4433
5.960312042999703,0,13603,688
5.963351042999875,0,256,0
5.967116161999911,10930,5329,0
5.970935723999901,768,1088,32
5.974075982999693,2144,1024,2880
5.978033527999742,320,3328,1360
5.981964286999755,976,2016,0
5.985048401999848,13523,4785,0
5.988953439999932,304,288,0
5.992102088999673,25430,1376,352
5.996066631999838,16131,6417,3664
5.99998463799966,2320,8434,0
6.003954920000069,11570,8914,5537
6.007131329999993,1136,3072,3952
6.010922414999641,9058,5521,0
6.01485544399975,10402,9474,0
6.017921702999956,4225,11042,0
6.021859304999907,21429,5313,3440
6.026046283999676,14435,5649,0
6.028863116999673,13123,7521,0
6.032875077999961,14963,544,0
6.036109104999923,0,2464,0
6.04010202399968,8610,18180,10034
6.044002846999774,1040,3952,2832
6.046969649999937,320,1264,0
6.0510191309999755,6145,4721,0
6.054969847999928,12098,1312,0
6.058005648999824,8466,1872,0
6.060977438999998,1568,0,0
6.065101679999771,608,8722,0
6.068010349999895,3408,112,0
6.071987249999893,2864,768,176
6.075226865999866,8962,1792,0
6.07900539100001,1104,10338,0
6.083140938999804,112,4177,8145
6.087136587999794,16243,1792,944
6.09014540599992,2512,1280,0
6.094267400999797,7073,1280,2224
6.097367132999807,3328,5185,0
6.101260249999996,0,14419,0
6.104354046000026,2192,2048,0
6.108118980999734,16,1792,512
6.111263686999791,2736,26806,0
6.115127224999924,25558,2160,0
6.119114877999891,10194,0,7025
6.12218828999994,9250,5185,0
6.126180274000035,26294,5377,13779
6.130160746999991,1840,15315,3280
6.134066790999896,1648,2304,0
6.137174048999896,1840,3280,0
6.141077460999895,1200,4657,0
6.144271769999705,0,1824,0
6.148188157999812,1296,3984,0
6.151297167999928,1712,2528,0
6.154387444999884,4161,976,0
6.1583090720000655,1056,1872,0
6.161357440999836,0,512,256
6.165346750000026,7441,4657,0
6.168378078999922,5889,5393,0
6.172143303999746,9474,2416,0
6.176170285999888,7953,3328,0
6.179050496999935,544,2144,0
6.182172481999714,0,1888,0
6.186237339999934,9698,5297,0
6.189155491999827,5889,3184,0
6.19326592599964,12435,928,0
6.1971081759998015,11810,18180,0
6.200304120000055,784,7937,144
6.204301904999738,5841,9650,13619
6.208091170999978,23461,10530,0
6.211269388999881,0,1968,0
6.215226259999781,4193,8562,0
6.218202874999861,14387,3424,0
6.222111335999671,6577,6385,0
6.225400219999756,8177,944,0
6.229133012999682,7201,2816,0
6.232332445999873,13411,928,0
6.236269582999739,3040,5585,0
6.239195025999834,3360,8866,0
6.243267001999811,2256,4689,0
6.246347728999808,0,3040,1040
6.250363342999663,10450,2336,2736
6.254134809999869,3328,5201,0
6.258211127999857,4433,2000,9378
6.261132929999803,8962,592,0
6.265217148999909,624,3216,0
6.268167895999795,4961,2784,3568
6.272069445999932,12995,6241,0
6.276064085999678,12467,16099,80
6.279971548000049,18740,10354,0
6.2830395859996315,13811,4913,0
6.287082224999722,2320,18708,5377
6.291067280999869,12579,5793,1680
6.294974828999784,256,1616,5089
6.298101225999744,9650,14035,0
6.302111454999704,21813,960,2816
6.305861039999854,19044,3584,0
6.309861921999982,14355,1072,3488
6.31292455799985,13491,5473,0
6.316869459999907,17764,1104,0
6.320141904999673,6769,352,0
6.3241237359998195,4705,544,2464
6.327098520999698,7041,1328,0
6.3310173059999215,3840,5521,0
6.334066420999989,0,992,272
6.338058167999861,2288,1856,3328
6.341966477999904,2048,1296,0
6.345187862999865,4625,2048,0
6.34905326299986,1760,1552,0
6.352202617999865,0,5409,6897
6.356182178999916,5025,3888,768
6.359145445999729,176,3168,0
6.363248884999848,2848,1552,0
6.367056014999889,4561,12146,0
6.370257242999742,1280,1344,0
6.374172529999669,2656,7265,0
6.377145806000044,256,1296,1904
6.381206652999936,1680,3328,0
6.384312172999671,176,9826,0
6.388070411999706,4705,4305,0
6.391317766999691,4785,1264,0
6.395352569999886,13043,9074,0
6.398156735999692,0,5873,0
6.4021943640000245,0,3232,0
6.405230521999783,10834,2048,0
6.408977887999754,1680,736,0
6.41232993299991,7953,1712,0
6.416213366999727,12579,7457,0
6.419125054999768,0,10482,0
6.4230522969996855,3840,2880,1248
6.42714726999975,7169,8994,0
6.431009974000062,13315,3488,10930
6.434171885000069,7073,9746,1536
6.43820649700001,5777,1792,0
6.441226049999841,0,176,0
6.445131142999799,1072,3376,0
6.449034831000063,12515,9554,12515
6.4522970969997,14755,3792,0
6.4553658549998545,0,9826,0
6.459145932999945,8866,7361,0
6.4621588619997965,752,2016,0
6.4662311519996365,12210,5809,0
6.46916563700006,864,0,0
6.4732573389997015,10562,720,1424
6.477145629999995,11122,2672,0
6.48012889499978,3680,736,0
6.484213502999864,2096,6193,816
6.487132792000011,11378,928,0
6.491050810999695,8418,0,0
6.4941047170000274,1280,2960,0
6.497175094999875,0,5729,0
6.50123999599964,0,8962,0
6.504237486999955,0,1008,0
6.5080628209998395,4577,1856,0
6.511339587999828,1248,3408,3024
6.51529611199976,2832,5905,0
6.518323636999867,5297,4641,0
6.522040344999823,0,14531,0
6.525093283999922,6049,4433,624
6.529010210999786,8033,33288,0
6.533057328999803,12098,2224,3840
6.536293278999892,6497,5377,0
6.540080723999836,28422,9362,0
6.543954960000065,816,5745,0
6.547209261999797,4593,13555,0
6.551196607999827,12387,176,0
6.5541705299997375,1936,3472,0
6.5581128679996255,11362,11026,0
6.562059683999905,13059,1200,0
6.565275905999897,3360,3088,0
6.569095661999654,11986,3840,2000
6.572960291000072,8674,1808,0
6.576053114999922,11442,624,0
6.580007698999907,2816,2864,800
6.583086592999734,272,2816,0
6.58698356099967,12403,768,0
6.590087742999913,624,2720,0
6.59399158899987,8450,544,0
6.597087536999879,4865,1536,0
6.600915241999701,3120,2992,0
6.603953631999957,10898,2144,0
6.607881243000065,1552,19348,0
6.611779053999726,6161,4961,0
6.614955074999671,3088,5153,0
6.61810966999974,160,912,0
6.621932207999635,64,4113,0
6.625086368999746,32,7265,0
6.628789947999849,512,10034,0
6.632110759999705,7985,2096,0
6.636089118999735,560,4689,0
6.638877995999792,0,3024,0
6.642049840999789,16,4769,0
6.646087745999921,0,4529,0
6.648871524999777,224,3520,0
6.653086928999983,6097,6289,0
6.6561083369997505,15795,2864,272
6.660153839000031,3552,14595,6433
6.664111330999731,1648,8482,0
6.667084074999821,33384,7409,0
6.6711611870000525,4609,2816,0
6.674968165999871,10530,1072,0
6.67817899199963,2816,3328,0
6.68210228199996,32,10994,9586
6.686188407999907,5105,3888,3760
6.689082192999649,112,1536,0
6.693279394000001,10610,5889,1792
6.697150353999859,14931,3504,0
6.700308206000045,784,9138,0
6.704208728999674,7649,2000,0
6.707310849999885,12146,1568,0
6.711238006999793,2256,3632,0
6.714287394999701,7153,2864,0
6.718217668999841,7665,1696,0
6.721282360999794,880,656,0
6.7252856139998585,2608,1264,0
6.728160086999651,1760,8177,0
6.7321132069996565,5345,11314,0
6.736227549999967,6433,19204,7073
6.739240182999765,21253,1648,0
6.7432667539997055,2976,5281,0
6.746247509999648,2816,4097,0
6.750297885999771,7137,4913,8097
6.754198582999834,3344,8674,0
6.757282814000064,4032,1360,0
6.761185110000042,368,3664,0
6.764290962999894,1824,1136,0
6.768225569999686,10450,1024,0
6.771311597000022,7505,1968,0
6.775134471999991,25270,2992,528
6.779032991999884,192,2832,2592
6.782955836999918,11442,1968,0
6.786218925999947,9074,1280,0
6.789951398999619,6177,992,0
6.7933253490000425,4657,11074,9570
6.797208927999691,9218,7441,1744
6.801270397999815,11442,944,11778
6.805250838999655,13523,10914,0
6.808299185999658,1360,2096,0
6.812283860999742,4353,1296,720
6.8162383049998425,11186,8722,5361
6.819155750999926,0,656,0
6.822212338999634,0,8962,0
6.8262512960000095,2416,4161,272
6.829304321999643,0,768,0
6.83327236399964,15667,1792,256
6.8371098439997695,8946,1824,10450
6.84016103499971,2912,592,0
6.8441788969998925,21765,3552,0
6.848256061000029,14355,1632,17492
6.852220662000036,4497,3792,3856
6.85590526399983,5377,672,3296
6.859091785999681,7857,912,0
6.863142441000036,5633,1744,0
6.866076723999868,4577,5457,0
6.869964932999665,1104,1744,0
6.873052893000022,7169,10642,0
6.876960042000064,736,3488,0
6.880058448999989,544,2304,0
6.883109592999972,0,1728,0
6.8870351359996675,6417,6145,0
6.890102182999726,1104,2784,0
6.894035050999719,4129,7713,0
6.8969623089997185,0,736,0
6.900839685999927,432,4064,1136
6.903921570999955,544,2048,0
6.907857485000022,2528,6177,480
6.9120283610000115,15283,6257,0
6.916019713999958,14451,1040,7969
6.9188340299997435,816,9554,208
6.923079924999911,2864,3936,1312
6.926951631000065,2960,3504,0
6.930088706999868,1104,5969,0
6.934011755000029,7425,5841,1008
6.937107834000017,4977,1168,0
6.940933502999997,0,4945,0
6.944039720999626,14435,9778,0
6.9479790339996725,15395,7537,0
6.951134809999985,256,1280,0
6.955026417999761,5345,2672,496
6.959058647999882,880,1536,0
6.962092692999704,1648,3920,0
6.9660796849998405,10418,3952,0
6.9690375870000025,4913,768,0
6.972995162999723,10018,2992,0
6.97623546099976,9186,944,0
6.980101634999755,2976,688,0
6.983031767999819,240,4977,0
6.986264020999897,80,1776,0
6.99021291300005,6737,10274,0
6.993965694000053,4064,928,0
6.99703966099969,1760,1712,0
7.001001042999633,0,3840,1392
7.004133220999847,1376,5921,0
7.008187177999844,3248,3568,5233
7.01213651199987,15907,12883,0
7.015297881999686,5297,15891,0
7.01908029399965,9714,7681,11538
7.0231852110000546,27446,864,3504
7.0271435810000185,11538,2496,256
7.030283776000033,192,1792,4977
7.034188263000033,7969,3216,0
7.0380363709996345,9138,4785,1248
7.04123386099991,0,2256,1072
7.045142232999751,3856,880,0
7.048106734999692,4865,1648,0
7.05202484199981,9634,3216,0
7.055313954999747,14355,1808,0
7.059023095999692,6209,2000,0
7.06228492199989,3888,848,0
7.0661671839998235,5937,3072,0
7.069103943999835,256,4513,0
7.073122638999848,4064,3376,9394
7.076351224000064,0,304,0
7.080086203000064,0,3328,0
7.083143112000016,0,1280,1824
7.087077895999755,0,4353,2096
7.090106352000021,9218,2592,0
7.094222925999929,4129,864,544
7.097350121999625,1280,8450,0
7.1013200879997385,1024,13427,2768
7.10522343699995,0,18852,0
7.1082230339998205,0,2048,224
7.112026985999819,14083,9474,0
7.115299319999849,7793,2416,0
7.119133093000073,272,9394,1440
7.123186296999847,16596,3152,0
7.126330132000021,17364,9394,0
7.130247045000033,0,7073,1536
7.133295108999846,18596,768,0
7.137113550999857,17124,2496,0
7.1403087229996345,800,1024,0
7.144218960999751,22069,5393,5425
7.148133699000027,10210,1776,0
7.152131238000038,6737,1712,1392
7.155091262000042,16548,2960,0
7.1590345209997395,4945,880,9698
7.162899069999639,1232,880,0
7.166001659999893,29703,3504,0
7.169922710999799,7937,5393,0
7.173052016999918,15923,1200,0
7.176993744999891,11186,240,0
7.180053532999864,256,9682,448
7.183944770999915,7361,5937,0
7.1871049649998895,400,2928,0
7.190927824000028,1440,8818,0
7.1939802909996615,3568,1072,0
7.197898416000044,8129,3072,432
7.201837004000026,3280,7329,0
7.2059365269997215,6193,7713,1792
7.208776767000018,2128,5217,368
7.213047335999818,3984,23493,6081
7.216955439999765,16932,1280,0
7.220003378000001,2064,1584,0
7.22405136999987,3200,4257,1712
7.227805175999947,8690,5233,0
7.231018696999854,0,3840,6449
7.235060868999881,19172,2304,0
7.238060915999995,3056,5233,0
7.242038124999908,2880,2464,304
7.245957447999899,3136,2288,0
7.24892458999966,9042,5345,0
7.253022180999778,6769,3312,0
7.256077277999793,8466,1024,0
7.258979020999959,0,7697,0
7.263074959999813,0,4961,0
7.26622484399968,720,2416,0
7.26913229999991,0,1920,0
7.273025568999856,10290,3696,0
7.277062883999861,7425,2624,0
7.280155513999944,2896,1072,0
7.2839519059998565,3584,528,0
7.2870453959999395,3856,5793,0
7.2909947169996485,2016,10594,0
7.2942671509999855,5121,2512,0
7.298181093000039,5201,256,400
7.301258952999888,336,3504,0
7.30512541500002,176,736,0
7.3091592669998136,5633,10162,6913
7.312199853000038,9650,1264,3072
7.316092411999762,6353,5073,0
7.320046015999651,1008,12226,16
7.323257643000034,5377,2048,0
7.327191372000016,17748,1264,0
7.3302266199998485,0,5889,0
7.334104685000057,14067,16,0
7.337128030999793,2912,11778,0
7.341001261999736,128,5089,0
7.34419728399962,3664,11170,0
7.348038679999718,7409,16980,6753
7.352036570999644,2208,1984,0
7.355114308999873,11170,3360,0
7.359092490999956,1952,6225,528
7.362140181999621,0,4705,0
7.366187657999944,7617,3520,0
7.369101412999953,5025,8802,0
7.373203241999818,2000,5377,0
7.376302552999732,5329,544,672
7.380251015999875,8722,2160,3024
7.384058436000032,544,8033,0
7.388094684999942,16371,10210,6257
7.3912687519996325,10034,5537,0
7.395238976999735,29815,3856,0
7.3981243640000685,96,416,0
7.402211288999752,15523,9474,352
7.406118843000058,29063,3280,0
7.409169347999978,2560,1200,0
7.413194062999992,20565,9330,0
7.416296144999706,12291,1280,0
7.420242056999996,10146,5601,0
7.424165085999903,13859,1856,0
7.427138920999823,10514,1200,0
7.431220955999834,11410,9410,0
7.4352316419999624,13939,5729,352
7.438056069999675,1104,768,0
7.441317753000021,0,3280,0
7.445279053999911,9954,9218,0
7.448263946999759,0,5393,0
7.452239590999852,8274,5281,1024
7.455988146999971,4097,1280,0
7.459110853999846,10658,1312,2816
7.462825703999897,9074,10498,0
7.466820095000003,12467,6049,4609
7.47079701299981,12579,2816,1952
7.473822649999875,3408,1552,0
7.478012815000056,17748,3584,1904
7.48198641099998,0,10610,0
7.485066983999786,19572,1952,304
7.4888351099998545,12771,4801,0
7.493080071999884,28342,5073,6833
7.4969747729996925,10530,1312,0
7.500133586999709,3072,8306,11010
7.50394351299974,24101,4961,2720
7.508035403999656,0,5649,0
7.511070312999891,13667,6321,528
7.515080534999925,15331,1584,0
7.518869719999657,3792,10978,0
7.521963281999888,10642,3808,0
7.5260846799997125,6513,1424,0
7.529066306999994,1328,784,0
7.533030315999895,9442,2720,0
7.536095887999636,14931,1968,0
7.5400696589999825,512,6289,0
7.543238260999715,336,752,0
7.547035928999776,15363,1296,0
7.550285969000015,4177,3376,0
7.5540832769997905,8290,7361,0
7.557301016999645,4689,3600,0
7.561248129999967,5729,12114,0
7.565245069999946,1568,2640,2304
7.5681462879997525,1392,5473,0
7.572108629000013,19812,12114,0
7.576070531999903,1008,13683,11666
7.580234283999744,11154,4353,1680
7.5832766609996725,496,5745,0
7.587156472000061,0,6177,0
7.590130475000024,768,2608,0
7.594052650999856,1312,3264,832
7.59727930300005,5857,7009,0
7.60100066799987,0,288,0
7.604084334999698,1440,2304,0
7.608038101999682,13235,304,0
7.611116327999753,832,2304,0
7.615014265999889,12915,5377,0
7.618106123999951,5153,2256,0
7.621989469999789,4337,544,0
7.625172692999968,5185,2832,0
7.629027737999877,2928,2992,0
7.632120517999738,0,3744,0
7.636080919000051,4145,1872,0
7.639183012999638,0,3936,256
7.643247405999773,10066,3328,7425
7.647198164999736,256,5425,1008
7.650299513999926,1072,9266,0
7.654140856999675,5393,23653,11618
7.658050179999918,2400,8450,0
7.661328556999706,29335,3888,0
7.665299474999756,13843,5265,0
7.6690552860000025,13683,21253,4497
7.674036990999866,23093,13571,11698
7.676881546999994,10354,2320,0
7.679774898999767,10610,4977,816
7.683740857999965,864,448,0
7.686794749000001,6417,4097,0
7.690703375999874,5713,1712,0
7.6937973659996715,16692,2816,0
7.697771906000071,2080,5265,0
7.700797882999723,1408,1792,0
7.704801777999819,15779,4080,0
7.7077726939996865,0,2448,0
7.711746139999832,13747,5121,0
7.71578944599969,14403,4145,0
7.718833332000031,3152,704,0
7.722849716999917,3728,5889,4769
7.725852795999799,6609,3248,0
7.729831580999871,432,5633,2560
7.733815954999955,11522,1024,0
7.73684085900004,144,3136,0
7.740817443999731,1696,7025,0
7.743846207999923,13523,576,0
7.747836744999859,0,5297,3840
7.751779931999863,24373,3216,3856
7.755804537999666,27910,6833,5137
7.758819948999644,12339,2768,9298
7.762841300999753,18388,4865,4865
7.766861066999809,21301,12258,14163
7.770846902999892,11890,0,3824
7.774845354999798,14339,6305,7793
7.77775719400006,11698,1776,0
7.781774523999957,2304,2816,0
7.785793718999685,6145,400,6241
7.788891943999715,4609,3632,0
7.793003556999793,7249,3824,0
7.796007760000066,656,1072,0
7.800082305999695,3504,2816,0
7.803921177999655,4097,2080,3984
7.807088720999673,10242,5265,0
7.81093760099975,672,3728,0
7.813988566999797,6225,1872,3696
7.818072369999754,3744,6705,720
7.821896848000051,13075,1056,0
7.826054767999722,12563,7057,8818
7.82899530099985,6913,7857,0
7.833196455999769,22757,1680,0
7.836300594000022,10658,1328,0
7.840038774999812,688,4705,256
7.844007627999872,1200,8450,0
7.847263756999837,11122,4016,0
7.851009253000029,1792,416,0
7.854115711999839,3440,800,0
7.857316657999945,0,2576,0
7.861037852999743,992,7953,0
7.86428996099994,1792,2128,0
7.868042883999806,96,6561,0
7.871134138999878,5809,1328,0
7.875113700999918,8450,6641,0
7.87897822900004,1232,2688,3104
7.882133603000057,1216,336,0
7.886227767000037,672,8049,4673
7.889183708000019,0,21029,0
7.893156152999836,9586,992,0
7.896305032999862,2560,6593,2816
7.900112370999977,1360,6081,4016
7.904110706999745,11378,13491,1648
7.9081099859999995,3104,10386,17764
7.912218738999854,304,2848,16516
7.91600156100003,0,19716,5665
7.919038302999979,8450,1952,0
7.922949949999747,4449,944,0
7.926215534999756,14419,3504,0
7.92914377399984,0,1024,0
7.933233473999735,11490,8097,0
7.936190193999664,9522,928,0
7.940078272999926,2416,2928,0
7.943293799000003,0,1280,0
7.947070179999628,512,672,0
7.950280334999661,2192,2720,0
7.954164384999785,10210,1456,0
7.9571149339999465,0,1312,0
7.961171320999711,1456,2224,3040
7.964299468999798,352,7185,0
7.968090560999826,3376,5873,2048
7.972198903999924,1792,1456,2784
7.97600218999969,6401,2544,816
7.979023980999955,1408,1312,0
7.983209863999946,4961,1440,3472
7.9871446089996425,1856,10578,0
7.9902734639999835,1824,20533,0
7.994203442000071,15091,4353,0
7.99804803699999,6497,24357,5793
8.001277200999994,17604,18292,0
8.005052295000041,4241,11890,0
8.008959507999862,1792,12258,0
8.012914082999941,4145,13683,5681
8.016077603999747,19300,15491,0
8.020063298999958,25846,7505,13219
8.024052514999767,12339,16612,1360
8.0280567169998,20244,11298,11490
8.032053769999948,18180,560,12291
8.035843027999817,1808,2544,0
8.038962876999904,3952,720,5217
8.042867692000073,7265,10866,2864
8.04679089199999,9074,2672,0
8.04986506799969,12130,3136,0
8.053962570999829,1552,5601,3680
8.058008716999666,1152,2528,0
8.061109250999834,18996,2864,0
8.065028534999783,3168,8370,2576
8.068859038000028,2464,13427,5217
8.073096796999835,29735,2512,0
8.076043537999794,10002,23845,0
8.080031313999825,0,6561,12819
8.083963912999934,18356,19764,0
8.087944151999636,10834,6113,3744
8.090971452999838,4497,17748,0
8.095107956999982,2880,5121,2928
8.099057823999829,15379,12002,0
8.102065365999806,20965,1904,0
8.106180946999757,3920,784,4129
8.110114163999697,144,1824,0
8.113110114999927,11634,3840,0
8.116961320999962,14611,448,0
8.120015265999882,1824,1520,0
8.123926935999862,9474,928,0
8.126987151999856,544,13939,0
8.13107737099972,12803,1040,6401
8.135025322999809,5153,1712,1648
8.138933732999703,5025,13795,5297
8.142033766999702,0,2752,0
8.145868509999673,6065,2192,0
8.14893223099989,5329,8706,672
8.152772920999723,9474,944,0
8.155844199000057,21813,5937,0
8.159884332999809,15907,3312,2528
8.163821631999781,8946,11890,3840
8.167754474000049,27958,1792,0
8.171739441999762,11442,26262,8242
8.175743189000059,13091,11682,3056
8.178767647999848,0,8177,1664
8.182747028999984,1200,592,0
8.185744749999685,20725,5377,0
8.189754173999972,13651,4337,0
8.192778886999804,18516,6577,0
8.196773634999772,3680,8866,0
8.200730426000064,9474,11826,6945
8.204740103999939,4449,14003,0
8.207762006999928,4145,9218,0
8.211757425999622,1712,20196,0
8.214813905000028,15795,4705,0
8.218776804999834,0,6145,5889
8.222733017999872,17108,1616,4257
8.225809593999656,2176,3552,0
8.22977246299979,576,9426,8402
8.233724866999637,0,6065,4801
8.236804571999983,9986,2208,7937
8.240790940999887,2256,9778,0
8.243800565999663,2064,8161,0
8.247861954999735,9202,10770,1216
8.251762576999681,36056,8017,0
8.25483224599975,6417,768,0
8.258762918999764,18772,5649,0
8.262750733999837,13059,2176,0
8.265743159000067,1024,4337,0
8.269746494999708,6257,2736,0
8.27278328500006,2400,2192,7697
8.276736080999854,11842,5553,0
8.279777401000047,0,3760,0
8.283733688999746,256,2592,0
8.286779719999686,7249,5937,0
8.290770994000013,10546,1280,0
8.294797188999837,11810,1840,0
8.297818357999859,1792,5009,2048
8.30176992099996,15331,12787,0
8.30575158900001,12531,1888,0
8.308792807999907,7937,14595,0
8.312765612000021,4561,7441,0
8.315779548999672,4209,1968,0
8.321717058999639,6033,5281,6849
8.323961806999705,11426,1296,0
8.326811717000055,24245,3632,0
8.330765841999892,2656,4353,0
8.334723710999697,1312,4929,0
8.337778154999796,1376,2048,0
8.341764418999901,11474,2304,2288
8.345697122999809,10770,1072,0
8.348737625000012,2496,6929,0
8.35276561899991,2816,13795,2272
8.356737376999718,3424,3648,0
8.359791769999902,35160,6721,0
8.363764101000015,2016,1760,0
8.366799797999647,9170,1984,0
8.370814504000009,35704,3328,0
8.373790520000057,11250,1280,0
8.377770393999981,2080,2608,0
8.381742708999809,4353,2976,0
8.384774172999641,2464,2128,0
8.38874111999985,2128,1200,0
8.391804174999834,1024,3232,0
8.395789220999632,16115,3504,4449
8.399761620999925,7057,3840,0
8.40280037399998,5121,6433,3152
8.406806246999622,1456,9106,16
8.409774855999785,0,10402,0
8.413766776999637,18292,2784,256
8.41777841999965,7937,1936,0
8.420788033999997,0,3312,0
8.424750332999793,1904,2720,3808
8.427800683999976,2192,4321,0
8.431763020999824,0,4961,0
8.43480091399988,3952,2672,0
8.438797510999848,12355,7329,1408
8.442749781999737,39689,7905,720
8.44580045099974,8690,4785,0
8.449789189000057,28855,1392,0
8.452813514999889,2304,1088,0
8.456796757999655,43546,4353,0
8.459781676999683,0,1792,0
8.463759742999628,14579,208,336
8.467768019999767,8866,2208,0
8.47078826400002,7425,3168,0
8.474746805999985,7985,2704,0
8.477842780999708,1296,2960,0
8.481775334999838,48571,5169,0
8.484837756999696,17108,1504,0
8.488840290999633,11090,6081,0
8.492823700999907,11442,12659,0
8.495808647999638,39033,8962,0
8.499771584999962,65535,7425,1024
8.503750005999791,12627,1280,0
8.507728385000064,18500,2128,0
8.51075340999978,17908,5633,0
8.514739445000032,1280,1680,0
8.51773483199986,17620,1264,0
8.521736739000062,45403,3648,0
8.52572975899966,12467,1808,0
8.528757477999989,12435,4209,0
8.532716980999794,19700,1792,0
8.53577206,624,1024,0
8.539752820999638,31975,2656,0
8.543731567999657,16131,5073,0
8.546762194999701,65535,5137,0
8.550744896999731,21509,768,0
8.553769858999658,25862,2048,0
8.55774546099974,4000,912,0
8.560712240999692,0,0,0
8.563753114000065,0,1616,0
8.567723618999935,9522,2352,0
8.57076922899978,19252,3520,0
8.574738165999861,31015,2832,0
8.577736145000017,19508,4064,0
8.581727941999816,8738,4097,0
8.584765116999733,1200,2336,0
8.58878193099963,1904,2912,0
8.592735994999657,7937,1792,0
8.5957947779998,12034,2640,0
8.599770996999723,30407,3328,0
8.602795032999893,4369,1872,0
8.606777109999712,15043,1120,0
8.609763798999666,0,1968,0
8.61373771999979,0,3712,0
8.616787358999773,7361,6913,0
8.619820862999859,0,1360,0
8.623790427999666,2480,2064,0
8.626807336999718,4369,2080,0
8.630756369999744,26390,3840,0
8.634738188000028,7089,1360,0
8.63779150299979,2256,3184,0
8.641769831999682,5441,2224,0
8.644795389999672,18612,2912,0
8.648789772999862,432,2880,0
8.651769819000037,11522,3856,0
8.655783614000029,45275,1840,0
8.658822283000063,1168,1792,0
8.662766911999825,12883,2384,0
8.66678738499968,16035,1536,0
8.669789280999794,0,3360,0
8.673759668999992,1696,2192,0
8.67678559099977,9378,2832,0
8.680768407999949,3328,1792,0
8.683790130000034,8001,1264,0
8.687706833999982,768,1840,0
8.690790700999969,7409,2096,0
8.694775150999703,8530,2800,0
8.69778183299968,0,2320,0
8.70079055999986,0,2336,0
8.704745145999823,416,1328,0
8.707811195999966,6609,2960,0
8.711775596999814,1776,6737,0
8.71479877999991,5233,2304,0
8.718746339000063,480,288,0
8.721799749999718,3232,1328,0
8.724798538999949,0,0,0
8.728772759999629,1792,2016,0
8.731770923999647,8546,1152,0
8.735748548999709,6401,2144,0
8.738804489999893,224,1616,0
8.742770988999837,0,1568,0
8.745786361999762,7281,1840,0
8.74880654799972,0,1024,0
8.752751774999979,1760,5649,0
8.755800593000004,1984,1728,0
8.759775505999642,2592,3984,0
8.763758016999873,1168,2208,0
8.766780317999746,3552,2560,0
8.770799349999834,2464,1584,0
8.773787573999925,2976,1696,0
8.777767073999712,864,2896,0
8.780760433000069,1552,2128,0
8.78476978899971,2880,1024,0
8.78780288500002,1152,1504,0
8.791766883000037,3632,1008,0
8.7947986639997,4273,1280,0
8.798763509999844,0,2960,0
8.801784914999644,1424,1840,0
8.805769376999706,6401,1968,0
8.808785727999748,0,3008,0
8.811795522000011,3056,2304,0
8.815784514999905,1968,6865,0
8.818785177999871,0,592,0
8.822764153999742,304,1456,0
8.825998992999757,1216,768,0
8.82905611499973,16,1136,0
8.832991510999818,832,5633,0
8.836094347999733,1584,2048,0
8.839999008999712,5697,6257,0
8.843070600999908,8818,2640,0
8.846887920999961,6721,2928,0
8.850793562000035,1488,2000,0
8.85386396199965,7937,2992,0
8.857763106999755,5889,1600,0
8.860807958999885,1328,2048,0
8.864780531999713,26630,1808,0
8.867843655999877,17780,1456,0
8.871799009999904,16131,6497,0
8.875765843999943,17412,2048,0
8.878828650999822,2304,1056,0
8.882728203999704,7665,608,0
8.88579575499989,4561,2048,0
8.889779941999677,816,1824,0
8.892793422000068,4097,1728,0
8.89667663199998,4097,2256,0
8.899786372999642,1680,2000,0
8.903786803999992,0,2304,0
8.906784281,3184,4177,0
8.910781879999831,3792,1616,0
8.913777558999755,6913,2512,0
8.917715537999811,5249,1312,0
8.920842722999623,4529,1552,0
8.924785837999934,1168,288,0
8.927814099999978,5649,2224,0
8.931734805999895,12627,1280,0
8.934804324999732,12547,768,0
8.9387546009998,11314,832,0
8.941760297999735,7889,1328,0
8.945826546999797,7937,3472,0
8.948825829999805,0,464,0
8.952812204999645,1232,1968,0
8.955762220999986,608,1440,0
8.959795901999769,6657,912,0
8.962825502999749,6913,1120,0
8.966784842999914,11058,1200,0
8.969818484999905,5729,0,0
8.972725981999702,7201,976,0
8.976733049999893,5217,4673,0
8.98071638700003,6689,1792,0
8.98373879599967,10802,2384,0
8.987700452999889,8081,1824,0
8.990736619000018,0,1792,0
8.994716071999846,1296,1840,0
8.997740129999784,3888,4561,0
9.000758806999784,0,1344,0
9.004732305999823,3328,2160,0
9.007749195999622,1488,1712,0
9.011742768999738,2080,4785,0
9.01480202499988,416,2400,0
9.018779160999657,0,3616,0
9.021771358000024,6609,928,0
9.02580245299987,16804,1088,0
9.028822268999647,256,1712,0
9.03280139699973,768,1648,0
9.035830066000017,15619,2080,0
9.039810521999698,336,2208,0
9.042814009999802,9554,2000,0
9.046795291999842,14947,720,0
9.049726953999652,11506,2368,0
9.053721920000044,5473,8177,0
9.05771479699979,20853,1184,0
9.060738868000044,27766,2048,0
9.064696850000018,6913,2336,0
9.067744661999768,45323,1312,0
9.071727285999714,2736,1712,0
9.074748082000042,9394,2960,0
9.078734214999713,17268,5377,0
9.082721187000061,3824,2528,0
9.085710978999941,8129,2368,0
9.089724286999626,31799,1872,0
9.092742747999637,13827,768,0
9.096701124999981,16644,2016,0
9.099749685000006,17876,496,0
9.103728401999888,416,6881,0
9.106751014999645,24037,512,0
9.110734047999813,33800,8354,0
9.114720721999674,19860,3328,0
9.117734438999832,40425,2496,0
9.121718801000043,21653,1712,0
9.125707188999968,12803,2784,0
9.128742561999843,47131,2464,0
9.132725731999926,3792,2048,0
9.135721402999934,14195,3376,0
9.139703972999996,5681,3024,0
9.14275181999983,22437,2080,0
9.146701801999825,976,4433,0
9.150685497999802,32455,2080,0
9.153733594999721,3344,2992,0
9.157721347999995,41178,1536,0
9.16074468099987,65535,1952,0
9.164716859999771,0,2528,0
9.167712376000054,36969,2048,0
9.171721711999908,26966,1248,0
9.174744124999961,560,4129,0
9.178698037999766,7201,2192,0
9.18174821599996,27126,656,0
9.185738630999822,12467,3040,0
9.18971580599964,47435,1072,0
9.192736622999746,3920,2208,0
9.196727758999714,65535,9154,1808
9.200713833999998,10146,2464,0
9.203709874999731,800,1552,0
9.207721667999976,43274,2224,0
9.21074266100004,16948,2160,0
9.214699909000046,9490,1200,0
9.217749811999965,32759,1456,0
9.221729559999858,2832,3232,0
9.225713863999772,13619,2816,0
9.228715973999897,4865,2048,0
9.232722748000015,16484,1520,0
9.235739631999877,704,2736,0
9.239701258999958,17364,2416,0
9.242748113999824,4465,3648,0
9.246740968999802,25350,6625,0
9.250714636999874,11954,1104,0
9.253778717999921,51100,1264,0
9.25780597899984,3408,4865,0
9.26080512999988,10994,1536,0
9.264815497999734,8978,3600,0
9.26879671200004,19636,2048,0
9.271729031999712,256,464,0
9.275712290999763,2224,1264,0
9.278734016999806,4497,3168,0
9.282701601999634,3232,1296,0
9.285711199999696,1392,880,0
9.289691336000033,30039,2624,0
9.292748192999625,8642,2128,0
9.296717522999643,16115,2512,0
9.29973532799977,19316,1856,0
9.303734824000003,23589,5089,0
9.307712700999673,38249,1280,0
9.310729019000064,2608,1616,0
9.314711241999703,18356,3488,0
9.31768500499993,6049,2080,0
9.32170469599987,6737,6673,0
9.325701281999955,19092,1632,0
9.328711688999647,4785,2640,0
9.331803470000068,32,1856,0
9.335714496000037,2448,5121,0
9.338748552999732,0,976,0
9.34272345699992,7633,1376,0
9.345750273999784,21157,1968,0
9.349733631999698,16932,3504,0
9.352724161999959,22277,608,0
9.356731488999685,12226,3008,0
9.360718341999927,13827,1808,0
9.363715384999978,7537,1872,0
9.367699920999712,2304,1904,0
9.370759335000002,5905,2080,0
9.374729954000031,3344,3920,0
9.377739974999713,0,2096,0
9.380728124999678,0,1792,0
9.38473443399971,4561,3360,0
9.387759527000071,4913,3184,0
9.39173048199973,6993,3104,0
9.394867322999744,976,1808,0
9.398820105999675,10194,3088,0
9.402814539999781,4497,2592,0
9.405817829999705,8546,2544,0
9.409801654999683,3680,1280,0
9.412816600000042,880,3136,0
9.416795722999723,3328,3216,0
9.419783854999878,1296,1072,0
9.423778771999878,1008,2192,0
9.426826860999881,7313,1024,0
9.430765718999737,2992,1280,0
9.43381651799973,7985,3600,0
9.437812546999794,2320,2640,0
9.44080262999978,320,1824,0
9.444803320999654,5537,736,0
9.447821355999622,0,1632,0
9.45173946299974,5825,1296,0
9.45481734699979,5393,2208,0
9.458803336000074,4865,1136,0
9.461773157999687,2048,2896,0
9.465797542000018,2224,1360,0
9.468803651999679,16307,1616,0
9.472782279000057,6193,6833,0
9.475823772999775,336,1792,0
9.479801886999667,9458,1872,0
9.482770163999703,4097,3200,0
9.486711577999813,3824,4833,0
9.490809076999994,4401,1488,0
9.493802130999939,9634,5777,0
9.497784294999747,4817,2304,0
9.500807847000033,336,1952,0
9.504759047999869,4289,1792,0
9.507804200999999,3040,2096,0
9.511753322999994,4881,1760,0
9.514780449999762,8466,2192,0
9.517759683999884,0,1040,0
9.52176284999996,4097,2048,0
9.525693561000026,5377,1712,0
9.528774686999895,2416,1824,0
9.532750940999904,2736,800,0
9.535772904999703,5937,3152,0
9.538789086999714,288,1376,0
9.542778392999935,5697,7425,0
9.546748580999974,7425,1760,0
9.549751216999994,1568,2048,0
9.55375891299991,3024,2208,0
9.556772883999656,592,2048,0
9.559777032000056,0,1712,0
9.563762104000034,3056,6161,0
9.566754248000052,4177,1520,0
9.570791243999793,3840,4689,0
9.57478040099977,14195,2480,0
9.577749916999892,2704,2128,0
9.58176456199999,2240,1760,0
9.58480600799976,8402,2016,0
9.588708064999992,1280,1968,0
9.591761325999869,4097,1712,0
9.595712594999895,6401,2320,0
9.59869547199969,0,1584,0
9.602797503999682,1104,1152,0
9.605789997999636,4401,1216,0
9.609710316000019,3072,1648,0
9.612727408999945,3600,1680,0
9.616783454999677,1840,2816,0
9.619826476000071,1904,1744,0
9.62383798799965,2608,928,0
9.626793303999875,5889,2096,0
9.630738863999795,9074,2992,0
9.633770570999786,8658,1888,0
9.637755426999774,3584,7665,0
9.64075953099973,0,2000,0
9.644701766999788,6353,1792,0
9.647745279999981,1232,944,0
9.651708869999766,816,864,0
9.654748292000022,13219,2960,0
9.658732168999904,608,1792,0
9.661725185999785,5361,2912,0
9.665764365999621,3056,2048,0
9.66874913499987,1488,1536,0
9.672699037999791,1136,1120,0
9.67575449800006,4241,1984,0
9.679727007999645,224,1280,0
9.682745410999814,9250,1568,0
9.686749846999646,9522,2224,0
9.68972497499999,448,1760,0
9.693699700999787,5185,1440,0
9.696745154999917,7393,2096,0
9.70073003799962,8017,1808,0
9.703806086999975,1792,2048,0
9.707767304999834,1760,5921,0
9.710787469000024,5889,816,0
9.714769316999991,16948,5473,0
9.717716309000025,416,848,0
9.721748912999828,0,5601,0
9.724787239999841,1184,2256,0
9.728722175999792,2608,784,0
9.731760809999741,2976,1712,0
9.73575407899989,2656,2144,0
9.738904848999937,0,1520,0
9.741764935999981,800,1696,0
9.745743034000043,10546,4865,0
9.749750354999833,4048,1760,0
9.752769746000013,2816,1216,0
9.756729001999702,3328,2032,0
9.759763890999693,0,576,0
9.76275233699971,1280,1152,0
9.766759424999691,3344,6145,0
9.769777013999828,928,1024,0
9.773758157999964,3504,6705,0
9.777098131999992,4145,2032,0
9.780763207999826,4433,3600,0
9.783775527999751,0,1184,0
9.787760864999655,1184,2384,0
9.790738539999893,0,1536,0
9.794723772999987,6065,2224,0
9.797800045999793,3248,1584,0
9.801807514999837,2400,1136,0
9.804783562000011,7601,3328,0
9.808755365999787,1632,1008,0
9.811762545999954,2640,1536,0
9.81575431500005,5121,2304,0
9.818752646999656,1152,1792,0
9.823173383999801,3376,5681,0
9.826111498000046,6145,736,0
9.829765845999646,5665,2000,0
9.833735967999928,11506,1520,0
9.83676880999974,7185,2832,0
9.84076310799992,2528,1792,0
9.843748174999746,14099,2608,0
9.84803495899996,4913,1872,0
9.850770186999853,768,2256,0
9.85474902399983,3184,3232,0
9.857759887999691,0,816,0
9.860754886999985,1008,1392,0
9.864765405000071,16179,5553,0
9.86873604099992,5825,2672,0
9.871727343999737,1168,2304,0
9.875726335999843,2576,2480,0
9.878747433999706,23141,2048,0
9.882729344999916,800,1584,0
9.885823793999862,21109,1312,0
9.889775135000036,4513,6929,0
9.893717031000051,10930,1056,0
9.896766448999642,5025,2592,0
9.90075238099962,12691,2112,0
9.904188728000008,16339,1200,0
9.907753704999777,2528,1824,0
9.910733640999752,2000,2016,0
9.914780078999684,8097,6161,0
9.917778907999946,7409,1696,0
9.921749558999636,4016,3504,0
9.926052673999948,14515,1232,0
9.928767204999986,3776,1392,0
9.932749905000037,1488,864,0
9.935775203000048,2944,2000,0
9.939758976999656,10754,1280,0
9.942781208999804,26838,1024,0
9.947040507999645,3936,5185,0
9.949763624999832,2896,1648,0
9.95371946799969,18212,2704,0
9.957737379999799,400,2816,0
9.961067685999751,10962,2832,0
9.964761803999863,7825,1584,0
9.967777057999683,2048,2800,0
9.971753551999882,6657,2304,0
9.974776165999629,1744,1824,0
9.97887689199979,1456,1456,0
9.981716886999948,2352,1952,0
9.985694351999882,1632,6321,0
9.988742635999643,3872,768,0
9.99300588899996,9378,5089,0
9.995754304999991,7377,2224,0
9.999728116999904,17572,4961,0
10.003707482999744,6513,1568,0
10.007123705999675,10194,1536,0
10.01072949699983,5089,3296,0
10.01371369599974,26710,3216,0
10.017719401999784,5729,6049,0
10.021199582999998,0,2048,0
10.024694798999917,2576,1840,0
10.027728058999855,0,2032,0
10.031700460999673,4897,1104,0
10.03472844099997,7649,1952,0
10.038885338,1328,1328,0
10.04173399399997,1712,1984,0
10.045689561000017,4945,1504,0
10.048731542000041,1760,224,0
10.052716494999913,2048,1456,0
10.056089039999733,6769,3072,0
10.059731033999924,96,2272,0
10.062710936999792,1008,1696,0
10.066708440999719,6417,3344,0
10.069735695999952,4209,2976,0
10.07368606099999,3984,1280,0
10.077089496999633,4305,2320,0
10.080726090999633,352,1648,0
10.083734127999833,2384,1808,0
10.087715407999895,768,1312,0
10.09071211499986,7793,2912,0
10.094719938999788,6097,2896,0
10.09777594399975,1440,1040,0
10.101968577999742,0,1680,0
10.10473540599969,7681,1296,0
10.107748210999944,512,992,0
10.111698415999854,4977,2816,0
10.115683536999768,6993,2336,0
10.118728634000036,4881,1648,0
10.12271488899978,2816,1424,0
10.12572711699977,5393,2272,0
10.129700048999894,64,1968,0
10.133007021999674,2448,2880,0
10.13670668099985,2048,3040,0
10.13971385900004,0,1136,0
10.142730817000029,464,688,0
10.14671226099972,5377,1808,0
10.14970339499996,3072,2112,0
10.153714408999804,6049,1280,0
10.156732922999709,816,2304,0
10.161040414999661,512,2304,0
10.16370982699982,3168,1296,0
10.166740155999832,0,544,0
10.17071664499963,4785,2480,0
10.174663267999676,4609,2800,0
10.17770798499987,2448,1328,0
10.180745203999777,0,2048,0
10.184717495999848,11250,6577,0
10.188698943999952,2464,1360,0
10.191693578000013,3840,1792,0
10.19567871199979,6209,1472,0
10.19872340899974,4641,1824,0
10.202750007999839,4048,1712,0
10.206097895999847,1104,1552,0
10.209744406000027,4801,2160,0
10.21274087699976,4977,2528,0
10.216695360999893,528,2960,0
10.219761883000047,848,800,0
10.22374476899995,6225,2720,0
10.227104047000012,6497,1488,0
10.230707030999838,1568,1872,0
10.23369869599992,7169,2672,0
10.237707198999942,928,1888,0
10.240707951999866,0,2096,0
10.243733474999772,2448,896,0
10.247720614999707,240,5457,0
10.251084900000023,5681,2112,0
10.2547569999997,6097,6769,0
10.257738789999621,720,2048,0
10.261712085999989,272,5121,0
10.264735304999704,4321,2080,0
10.268711177999648,368,7201,0
10.271732170999712,3600,848,0
10.275714708999658,2992,1472,0
10.278711955999825,0,0,0
10.281833195999752,2752,1856,0
10.285732315999667,6145,1280,0
10.288719838999896,2064,2000,0
10.292724451999675,2624,7761,0
10.295748354999887,1392,1952,0
10.29969844299967,2480,2256,0
10.304058426999745,1600,2592,0
10.306736727000043,6337,1824,0
10.309746148999693,0,1392,0
10.313716690999627,5681,7137,0
10.31674437599986,2192,1792,0
10.320989555999859,3760,3312,0
10.324669360999906,1808,2224,0
10.327723888000037,3360,2304,0
10.331696177999675,3328,992,0
10.33472564199974,5025,2208,0
10.338040788999933,544,2160,0
10.341755777999879,768,3328,0
10.34477965699989,7441,2000,0
10.348758041999645,3504,2416,0
10.352730187999896,1952,6209,0
10.35575978099996,3296,2416,0
10.35874297600003,0,720,0
10.363081022999722,2816,1104,0
10.36575751800001,5265,1680,0
10.369716723999773,5313,1520,0
10.372737216999667,2480,2336,0
10.376694987000064,2432,4449,0
10.379737576000025,272,1792,0
10.383717987999717,4817,6113,0
10.38769999499982,1536,2336,0
10.390762577999794,5041,3072,0
10.39469784999983,6833,2224,0
10.39771999100003,1904,1552,0
10.40169971799969,528,1280,0
10.404722053999649,6289,2208,0
10.407749695999883,944,768,0
10.411738802999935,6897,5969,0
10.415750532999937,4273,2304,0
10.418761470999925,2000,2160,0
10.42176007299986,0,1776,0
10.425662186999944,2480,2048,0
10.428756942999826,1024,1184,0
10.43271167299963,1792,7441,0
10.435736386999906,3024,624,0
10.43972668599963,528,7393,0
10.442717253999945,1312,1712,0
10.446727906999968,3952,7777,0
10.449711426999784,1744,80,0
10.45374110199964,7425,1744,0
10.456745047999902,2656,2864,0
10.460691526999653,272,7953,0
10.463738887999625,4529,640,0
10.467736007999974,1632,2656,0
10.470786100999703,5169,1552,0
10.474762570999701,8290,1856,0
10.477701502999935,0,1824,0
10.481663219999973,112,1008,0
10.484760223999729,7057,1936,0
10.487784450999698,240,880,0
10.49173781699983,4241,2272,0
10.49570918399968,4241,1264,0
10.498748705999787,944,1440,0
10.501801717000035,464,2256,0
10.505749699999797,8626,2912,0
10.509678510999947,2192,1648,0
10.512750851999954,3648,2080,0
10.516711935999865,2064,1696,0
10.519746821999888,0,1936,0
10.522758177000014,2288,976,0
10.526699734999966,256,9506,0
10.52976259199977,2816,1376,0
10.533694550999826,6657,848,0
10.536748853000063,1632,2112,0
10.540711430999636,304,2336,0
10.54370610199976,4113,1712,0
10.547692808999727,736,1792,0
10.55074754799989,3600,1600,0
10.554762453999956,6865,1968,0
10.557777612999871,720,2496,0
10.561749791999773,256,1536,0
10.564762712999709,5889,1904,0
10.568703374000052,0,2320,0
10.571731449999788,2144,2144,0
10.5757022949997,5169,1136,0
10.578765342999759,0,2208,0
10.581839916999797,1760,2368,0
10.585710613999709,2816,6209,0
10.588795636999748,0,1280,0
10.592729515999963,2080,1280,0
10.595774144999723,3104,2512,0
10.599746794999646,944,2336,0
10.602768461999858,1040,1584,0
10.606716549999874,736,2256,0
10.609711885999786,3376,1792,0
10.613699634999648,6529,2672,0
10.61677263699994,1488,2160,0
10.620687318999899,80,1792,0
10.623731605999637,3824,1840,0
10.627710635999847,784,2304,0
10.63073670499989,4337,1520,0
10.634732145999806,5745,1504,0
10.637724052000067,656,1904,0
10.641692355000032,336,2016,0
10.64473649799993,6913,1744,0
10.648706577999747,368,1616,0
10.651711573999819,2656,1456,0
10.6557275199998,4593,2384,0
10.658757905999664,48,1904,0
10.661774849999802,0,2368,0
10.66575504299999,3328,7729,0
10.66874357200004,1568,768,0
10.672759852999661,2256,1008,0
10.675749189999806,2864,1888,0
10.679698394999832,4401,4337,0
10.682740311999623,1136,2576,0
10.68672558399976,6033,3632,0
10.689747243000056,4145,304,0
10.693733329999759,6385,2304,0
10.697743200999867,3168,2464,0
10.700767495000036,1728,2304,0
10.704734817999906,4769,768,0
10.707791196000016,2304,2160,0
10.711738584999694,3312,1584,0
10.714762144999895,4561,1568,0
10.718714780000028,800,1136,0
10.722032181000031,928,1888,0
10.726136553999822,4817,2096,0
10.728845657999955,640,1312,0
10.733080203999634,2208,2848,0
10.736094778999814,2656,2224,0
10.738929406999887,0,1136,0
10.743084414999885,1104,7377,0
10.746043899999677,3376,1344,0
10.749818626999968,6401,3840,0
10.75379349800005,4193,2256,0
10.75693830199998,3408,2032,0
10.75996241699977,48,784,0
10.763904594999985,976,7937,0
10.766940237999734,4385,1600,0
10.77084181400005,4817,2048,0
10.773837621999974,8001,2736,0
10.777796878999652,2208,5937,0
10.780899062999652,0,2000,0
10.784905610999886,6689,928,0
10.787926666999738,2048,1264,0
10.791899371999989,4561,1200,0
10.79496064399973,3728,704,0
10.798815789999935,208,1264,0
10.80205533499975,544,1712,0
10.806056473999888,4016,1328,0
10.809024932999819,0,1616,0
10.812053246999767,1696,2464,0
10.81613863199982,4529,5041,0
10.819096741000067,688,1792,0
10.823167438999917,432,3472,0
10.826233889999912,5169,2160,0
10.830024952999793,5297,4689,0
10.834084841999811,3344,1168,0
10.837047004999931,6401,3552,0
10.84004396599994,0,1008,0
10.843826693999745,0,2816,0
10.847119772000042,3904,2304,0
10.850884119000057,3328,1504,0
10.854205869999987,8370,4241,0
10.857956763999937,544,1792,0
10.860980009999821,0,2304,0
10.864110700999845,4465,2288,0
10.868026092000036,5985,4305,0
10.87180872099998,4881,2544,0
10.874913349000053,6145,3408,0
10.87786080199976,624,864,0
10.881723097999839,0,4353,0
10.884774465999726,5057,1360,0
10.888755636000042,1872,1696,0
10.891851683999903,5457,1616,0
10.895968332999928,3792,2288,0
10.898797351999747,528,2720,0
10.902914908999719,1120,576,0
10.90599683399978,3632,1536,0
10.909939570000006,5089,1328,0
10.913068087999818,4481,3472,0
10.916960635999658,1840,1568,0
10.919868897000015,768,1024,0
10.924003886999799,752,2032,0
10.926988124999752,3168,1008,0
10.930919946999893,5153,0,0
10.934010769999986,6913,2944,0
10.937855290999778,384,2416,0
10.94111189799969,2016,1760,0
10.945017688999997,5073,2480,0
10.948048127999755,816,2304,0
10.952171659999749,1632,2224,0
10.955104370999834,5713,1840,0
10.958895471999767,752,1280,0
10.962047385000005,704,1712,0
10.965960214999996,6129,3120,0
10.969041196000035,5121,3504,0
10.972884752000027,1456,1776,0
10.975972658000046,3792,2336,0
10.979877207999834,3040,3696,0
10.982991031999973,1024,3344,0
10.986950086999968,0,1792,0
10.990020134999668,2096,1904,0
10.993916648999857,12355,3568,0
10.996951243999774,1824,1824,0
11.000040882999656,0,0,0
11.003845509999792,4177,3328,0
11.006854506999844,5969,3360,0
11.01078022999991,7713,6385,0
11.013848541999778,3024,2064,0
11.017937318999884,16227,4193,0
11.021959831999993,992,688,2032
11.02500936999968,9202,1200,1024
11.02887020099979,9410,2320,0
11.032922050999787,13539,1360,0
11.035805453999728,6241,2048,0
11.040039512000021,528,2080,0
11.043026890999954,6129,2288,0
11.046896687999833,3456,1888,0
11.05008298599978,6401,48,0
11.0537620959999,6481,2096,0
11.056912324999757,9442,3264,0
11.060913524999705,5985,768,0
11.064079203999881,19316,1776,0
11.06803442699993,1280,1024,0
11.070990134999647,5969,1488,0
11.074911291999797,848,512,0
11.078134028000022,1968,1584,0
11.082126222999705,19540,4321,0
11.085187777999636,4801,2512,0
11.088970216999769,8978,560,0
11.092124413999954,19796,1024,0
11.096096708999994,14131,7761,0
11.099107417999676,464,1280,0
11.10323060599967,7409,7057,0
11.106896263999715,2512,1904,0
11.110240106999754,5169,1744,0
11.114028453999708,9874,2048,0
11.117054241000005,15875,2320,0
11.120980014999986,8546,2656,0
11.124124558999938,10386,720,0
11.128155159000016,224,1632,0
11.13128185000005,3040,2480,0
11.135034208999969,0,2304,0
11.13803012399967,5745,1424,0
11.14198575499995,4353,1264,0
11.145069741000043,10418,1568,0
11.148865744999966,2128,192,0
11.152098687000034,33816,1504,0
11.155869535999955,0,5169,0
11.158932500999981,15219,2400,0
11.162922868999885,2256,3120,0
11.16601953899999,3120,1024,0
11.16995877799991,1248,944,0
11.173166304999995,4497,944,0
11.177183460999913,9186,1808,0
11.180290599999807,15251,1216,0
11.184102619999976,15315,8450,0
11.18788984899993,5953,1760,0
11.191217759999745,2864,1360,0
11.194967485999769,11570,1280,0
11.19795947700004,5121,1072,0
11.201968684999883,1040,2048,0
11.20511846699992,14835,1872,0
11.209052578999945,21061,5425,448
11.213038590999986,2784,880,0
11.216050015999826,3104,2080,0
11.219927463999738,5697,656,0
11.223240151000027,4625,2848,0
11.227029570000013,20276,1792,0
11.23013396899978,1888,2624,0
11.234191315999851,5377,4369,0
11.237342263999835,7937,1280,0
11.241044573999716,16,5905,0
11.24412632099984,18148,2096,0
11.248149575999832,992,5377,0
11.251304236999658,6081,1712,0
11.255060174999926,2304,6225,0
11.258909762999792,11234,1376,0
11.262092489999759,2064,3088,0
11.26597205600001,5953,1536,0
11.269041560999995,37161,1728,0
11.272961265000049,1024,304,0
11.276008289999936,0,1632,0
11.279898064000008,26486,2096,0
11.282964472000003,9074,5009,0
11.286953151000034,4913,1808,0
11.28998264699976,7665,5809,0
11.293998416999784,2080,1280,6145
11.29793927799983,11922,3728,0
11.30093186799968,29927,3040,0
11.304886708999675,44794,5153,0
11.3088243039997,52604,3328,1840
11.311867866999819,31479,11954,0
11.315730082999835,5697,4225,0
11.319718430999728,29527,1072,0
11.322902372000044,2624,1120,0
11.326791053999841,44810,2064,0
11.330063839999639,448,672,0
11.333747711999877,6065,1056,0
11.33698265799967,6881,5377,0
11.340782634999869,30967,6401,0
11.344087192999723,14899,4369,0
11.348045389999697,4097,3824,0
11.351927129999694,1952,6113,0
11.355089060999944,22805,2800,1200
11.358787712999856,21173,6913,0
11.363012610999704,2352,2848,0
11.366076208999857,22693,5185,1248
11.369822475999626,21941,5393,208
11.373986606000017,9810,2656,0
11.377083016999677,1792,1504,0
11.381146265999632,1632,4545,1600
11.385116058999756,11890,3872,192
11.38895464899997,9682,2720,1552
11.392123634999734,5009,3952,0
11.396216960999936,13235,928,2080
11.400106254999628,25270,528,0
11.403238115000022,2048,2048,768
11.407181521999973,7665,5265,0
11.410272171999623,14131,3824,0
11.414192973999889,13251,4865,0
11.41808113299976,4625,3536,0
11.42106537599966,656,1600,0
11.42509941499975,26582,256,0
11.42812439599993,30391,2080,0
11.432050494999658,10322,880,352
11.435188581999682,13715,528,0
11.438946360000045,7649,3440,1232
11.443075803999818,6449,1728,0
11.446223590000045,11794,12210,0
11.450072008000006,10658,4353,4016
11.453961646999687,15699,9458,0
11.458159044999775,27398,1968,208
11.461280490999798,19316,6609,0
11.46532576599975,19828,16548,19076
11.469010601999798,44282,3984,9634
11.473143929999878,3840,1168,0
11.476304272999641,7297,976,160
11.480264325999997,4929,2000,2672
11.484164588999647,6097,2928,0
11.487274566999986,18292,3904,0
11.491192751999733,752,6289,0
11.494988778999868,13571,7697,0
11.498078222999993,10066,1728,4097
11.502079557999878,3952,9426,528
11.506087281999953,272,1440,0
11.508994492000056,9218,4817,672
11.51322976199981,4401,2768,3984
11.517082263999782,3600,2672,0
11.520038510999711,1008,832,0
11.523987112999748,16932,1648,0
11.527254292999714,7761,1296,0
11.531067536999672,3152,368,6577
11.535134542999913,6865,560,1328
11.538071582999692,16,12034,0
11.54220667699974,6561,13331,10658
11.546214586999668,1952,25414,5809
11.549096068999916,8786,816,0
11.553186537999864,1072,9810,0
11.556280216999767,2560,2512,0
11.560094280999692,6305,11010,0
11.564059649999763,7425,4497,4865
11.56701314699967,7649,2304,0
11.570985771999858,3728,5905,6145
11.574895927999933,41898,2208,0
11.578017650999755,22213,6113,0
11.582015050999871,5665,4433,0
11.58591347399988,40409,4385,13219
11.589891113999784,6913,1472,3840
11.592982552999729,6753,2016,0
11.596797741000046,544,7441,0
11.59982898699991,0,1856,3888
11.603746020000017,10002,0,2208
11.607720500999676,2320,8338,6497
11.610906801000056,9170,1536,0
11.614905644999908,0,10754,4193
11.618003119999685,0,3648,8450
11.621977801999947,0,21253,7409
11.626008829000057,1200,1040,0
11.628801034999924,11826,2064,0
11.633027026000036,9362,2400,0
11.63601721699979,7841,976,0
11.639949875999719,4353,1024,0
11.643056513999909,4145,2288,0
11.646984903999964,6177,1520,0
11.64994186199965,0,1328,0
11.65306105899981,3360,864,0
11.65704764999964,8962,2816,0
11.660996453999815,2592,8418,0
11.663924443999804,4737,1376,0
11.66803419300004,2576,1024,0
11.671002827999928,0,1216,0
11.674052138999741,6817,4401,0
11.678090543000053,1296,5393,0
11.681962273999943,8594,13827,0
11.685018397000022,5361,3296,5041
11.688887197999975,0,7009,528
11.692114683,5521,4513,0
11.695924166999703,0,10594,0
11.699996688999818,1952,4385,2816
11.703121822999947,38249,2640,16676
11.707092190999902,1264,7601,0
11.710989113999858,7249,1808,0
11.714085365999836,7537,1552,0
11.718033918999936,2064,1328,1680
11.72201204699968,1520,5009,912
11.725114842000039,26838,5777,0
11.728908996999962,240,240,0
11.732078738999917,7761,3440,0
11.735989952999716,7841,2016,0
11.73902537999993,192,880,0
11.743106149999676,4385,7409,0
11.746060748999753,1280,5633,0
11.75013748099991,3488,1280,0
11.753195862999746,2528,880,0
11.756282912999723,496,880,0
11.760271341999669,2784,3792,10610
11.764251238999805,4241,13715,2800
11.768075745999795,224,2816,11842
11.772055819999878,8017,4433,7937
11.776031060999685,10914,15971,12499
11.779974425999626,4641,1632,2976
11.783212289999938,304,4016,12034
11.787080462999711,1120,2976,2416
11.791235439000047,6737,5121,11938
11.79495900999973,12130,9490,896
11.798942232999707,24069,9522,6113
11.802158319999762,9778,17604,0
11.806107666999651,14611,5777,3808
11.81023660999972,19620,8802,2816
11.81416531800005,9138,9922,0
11.818124361999708,6945,7377,3088
11.821170003999669,12771,2912,7329
11.825237293999635,1552,18484,0
11.828957013000036,928,1328,6177
11.832078550000006,9042,816,496
11.836190183999861,4321,1920,0
11.839072103000035,0,17620,880
11.843143516000055,9634,3920,10066
11.847037316999831,7169,6401,0
11.850282926999625,15667,3040,0
11.854109168999912,11058,5089,0
11.857256030999906,0,1616,0
11.861042549999638,624,688,0
11.864017007999792,2304,1424,0
11.867895616999704,0,3664,0
11.87100281999983,4129,1520,0
11.874903490999714,4145,1376,0
11.878019815999778,1200,1968,0
11.881997838999723,1200,1280,0
11.885030905999884,432,1056,0
11.888929626999925,4769,5345,0
11.892890092000016,8626,17140,3168
11.896852252999906,11714,22469,10290
11.899910502999774,14723,864,0
11.903787334999834,544,1056,0
11.906794951999927,1728,3296,0
11.910881226999663,3840,3744,0
11.91400006899994,3216,2048,0
11.917921679999836,6641,10754,0
11.921886012999948,2624,1472,1792
11.92504517999987,14227,3520,0
11.92901506499993,18356,4016,0
11.932012628999928,10914,2464,0
11.936059876999934,9314,2608,2224
11.939798524999787,0,12531,2560
11.944017196000004,6145,6145,1904
11.947048725000059,4145,1200,0
11.951015446999918,13619,320,0
11.95395992199974,12034,3136,0
11.958060569999816,10034,4705,3376
11.961946409999655,9458,7425,0
11.964971981999952,11714,1328,0
11.968872915999782,0,10754,7489
11.973145872999794,560,4785,1280
11.976253330999953,944,8578,0
11.979983620999974,10722,864,0
11.983259647000068,0,16035,0
11.98700192699971,12771,3360,0
11.990257537999696,10818,10594,0
11.994190766999964,6001,12627,0
11.997976189999918,14179,672,0
12.00123793299963,224,9314,0
12.004107288999876,0,800,0
12.008028316000036,2768,9058,0
12.011236782999731,2288,3232,0
12.015049460999762,8594,1056,0
12.018291114000021,6833,5393,0
12.02207908399987,2608,9122,0
12.025956679000046,19012,2560,0
12.029046797999854,2048,1040,0
12.03301035200002,256,1280,0
12.036215189999893,3968,2560,176
12.039089187999707,0,3312,0
12.043215564999628,4337,2976,0
12.04685813199967,3856,4785,0
12.050214619999679,1088,752,0
12.053970563999883,13427,1552,0
12.05706171599968,688,3056,0
12.061119785999836,1648,1696,0
12.064219524999771,256,2528,0
12.068100555000001,4097,6993,0
12.07102722799982,3696,2816,0
12.075028853999811,1824,1360,0
12.078072455999973,5057,13059,0
12.082111507999798,1232,1520,0
12.085115588999997,7425,1040,0
12.089024012999744,3632,8802,1280
12.093092504999731,944,4321,0
12.095997491999697,1888,9650,0
12.100123808999797,7153,9474,0
12.10304287100007,2304,1456,0
12.107188016999771,1024,4609,2240
12.110981554999853,10802,1568,0
12.114250347000052,10354,3760,0
12.117913993999991,2032,5313,0
12.121320767999805,15187,7425,0
12.125296607999644,17428,2816,6209
12.12894205099974,0,2560,768
12.132158912999785,3248,5665,0
12.135980403999838,272,7969,0
12.138972907999687,0,512,0
12.143151000999751,2848,1760,13395
12.14622748299962,11922,2288,0
12.150217481999789,2816,2208,0
12.154017763999946,16564,4257,2864
12.157269573999656,8754,3840,0
12.160940445000051,1904,5697,0
12.164823873999921,12002,1136,0
12.167890811999769,0,2000,0
12.171007771999939,1120,9954,0
12.174922743000025,14627,5473,0
12.178847284999847,256,1504,1840
12.182041560000016,3984,2768,0
12.185909265999726,5233,496,0
12.189032764999865,816,4145,8306
12.192853966999792,9298,4913,0
12.195816271999774,656,9426,0
12.199801726999794,992,5729,0
12.202777861999948,7265,5425,0
12.207013347999691,10002,6449,48
12.210995814999933,10930,7521,1488
12.214931294000053,18452,9298,0
12.217826595999668,5025,8450,0
12.221736020999742,7665,3584,0
12.224786446000053,11922,3088,0
12.228749074000007,0,5937,0
12.231754969999656,1712,3328,0
12.235770399999637,25814,1280,0
12.238794701999723,13027,5953,0
12.24276846199973,3888,9314,0
12.246707516999777,30631,18180,6417
12.250926704999983,17572,752,1792
12.254973671999778,17156,2192,2320
12.258003889000065,5473,6417,0
12.261956309999732,1152,4753,0
12.265028933999929,18420,2704,1488
12.268830135999906,2576,1872,2240
12.272927668999728,2608,3072,0
12.275915913000063,5121,768,0
12.27974678199962,3744,9106,0
12.283989216000009,1840,12307,5409
12.28694489999998,1008,1104,0
12.29088962700007,10578,2912,3616
12.29491750399984,17780,5105,0
12.297767474000011,6049,2448,0
12.301724250000007,13395,0,0
12.304766216999724,19204,2608,256
12.308686870999736,0,3328,0
12.31175365099989,16756,2768,0
12.31573381699991,12371,19812,0
12.319650053999794,1984,2576,0
12.32272570899977,8754,1600,0
12.326713466000001,17652,2736,2560
12.330725164999876,14899,256,0
12.333766847999868,28743,4529,0
12.337738373999855,1488,8097,4145
12.341701695999745,13139,1456,304
12.344951379999657,5889,3360,0
12.348877684999934,1104,2192,2928
12.352738791999855,944,6177,3856
12.35701059799976,3584,1872,5345
12.36002418399994,3328,1712,0
12.36393916399993,880,3072,0
12.36693242299998,1104,5649,1712
12.37105589399971,4561,496,0
12.374070344999836,11842,2592,64
12.378041626999675,5633,1888,1280
12.38188319899973,8402,3872,0
12.385859119999623,7249,4032,1584
12.388782238999738,4993,1904,2048
12.392976415999783,0,4080,0
12.395897954999782,384,9522,0
12.398802755999895,0,1760,0
12.402819823999835,2352,4145,160
12.407019613999637,4625,7153,0
12.410158982999747,4865,9890,0
12.413941630999943,0,18068,0
12.417235039999923,10290,13843,784
12.420957266999721,0,4321,0
12.424083744999734,2736,4369,0
12.427924066999822,5169,3792,0
12.431205128999864,6977,7249,0
12.43506116799972,22277,11458,752
12.43897768099987,6913,1488,5729
12.44317646599984,17620,14675,7793
12.446974877999764,22277,1264,288
12.45021601999997,0,3328,0
12.453863892999834,19956,816,0
12.457022504999713,4273,1872,0
12.46084779399962,288,1248,0
12.46396016799963,4337,1536,0
12.466997964999791,0,2144,0
12.47087848199999,7601,5761,0
12.474005100999875,3824,1696,0
12.477904491999652,2480,4048,0
12.481785957999818,5089,4305,0
12.484916254999916,608,1792,0
12.487837137000042,256,1376,0
12.491774536999856,816,5377,0
12.494791397999961,1792,0,864
12.498731659999976,6161,14083,0
12.501903241000036,0,2208,1504
12.505727679999836,14563,5153,0
12.509715771999709,6417,2272,11730
12.51392129099986,11538,496,0
12.516967577999822,9682,4641,0
12.520934771999691,1792,1488,0
12.523936974999742,3584,6481,0
12.527896061999854,6113,1392,0
12.530977100999735,13571,400,0
12.534885987000052,15267,11250,0
12.537887892000072,0,4273,0
12.541879160000008,7249,8850,0
12.544879949000006,10290,848,0
12.548722047999945,1552,7425,768
12.552027304999683,5473,2592,0
12.556014388999756,7665,2800,1968
12.560036416000003,1456,8850,0
12.562954546999663,1024,6817,0
12.566984737999974,1344,6769,608
12.57113226599995,7265,4577,880
12.57492904999981,14323,17108,0
12.578079300999889,3632,6305,288
12.582009150999966,2080,1104,0
12.585279209999953,16644,5281,0
12.588868316999651,0,7857,0
12.592094110999824,2816,2080,0
12.596108211999763,4561,2080,0
12.598955144999763,0,1104,0
12.60216264499968,80,1056,0
12.606117948999781,28422,4609,0
12.610096770999917,10626,544,2816
12.614063854000051,21061,3024,880
12.617234904999805,14451,832,0
12.620921600999736,0,4865,8177
12.625006250999832,23733,1024,2224
12.628134530999887,6881,1968,0
12.631969358999868,3504,6321,0
12.635132929000065,14051,1680,0
12.63884619800001,880,1264,0
12.64206050699977,1296,1312,0
12.646066318000067,3376,1792,0
12.650024024999766,1552,1952,1440
12.653070162999938,12707,1392,0
12.657040800999766,6913,5425,0
12.65999143199997,0,784,0
12.663063484999839,2304,3072,0
12.667174570000043,15667,5153,0
12.67105094999988,1648,2480,0
12.674189084999853,18020,6993,0
12.678115548999813,464,2304,2224
12.681240000999878,240,6049,0
12.685201150000012,19396,5585,0
12.688858197999707,2352,1232,7329
12.692075780999858,768,5425,0
12.696072704000017,6241,256,0
12.698971768999854,10514,1872,0
12.702897678999761,4945,736,0
12.705985142999907,13459,7281,0
12.709913202999815,1520,11490,0
12.714131786000053,37641,9266,0
12.71722015999967,11218,4641,0
12.72090490499977,2656,0,0
12.724115572999835,24565,11986,3248
12.728119026000059,11090,3072,912
12.732029213999795,19220,9650,0
12.735300271999677,2608,1072,0
12.738961878999817,2208,3552,0
12.742273403999661,5473,848,0
12.74601084699998,1760,6305,0
12.749041893999674,0,480,4433
12.752998461000061,1024,3984,0
12.756069036999634,2560,1824,0
12.759992601999784,2784,3264,0
12.763833462999628,3056,2208,0
12.76700181599972,3888,3040,0
12.770869380000022,6321,320,0
12.773979966999832,8866,1312,0
12.777897366999696,5553,4353,0
12.781021986999804,2128,1200,4961
12.784976041999926,8770,6513,0
12.787903209999968,320,928,0
12.791776883999773,0,4513,352
12.794842565999716,784,7969,0
12.798784980999699,2272,14451,0
12.802801052999712,13795,1744,3072
12.806020074999651,736,1072,0
12.810028974000033,4577,5489,9122
12.814005314000042,5857,5265,7473
12.817921074999958,5089,3504,2992
12.820964413999718,10722,16708,0
12.825034878999759,1792,6737,4369
12.82878394799991,7425,2256,0
12.831931771999734,10242,14003,0
12.835833208999702,10290,2064,0
12.839895694000006,22261,1904,2640
12.843042980000064,6977,1280,0
12.846813687999656,512,4865,0
12.84994651199986,8434,1648,0
12.854069101999812,12178,2832,0
12.857170896999833,208,1760,0
12.86114717800001,1152,5281,0
12.864274264999949,13523,960,0
12.868224673999975,4721,5217,0
12.871923475999665,8306,6113,0
12.875308656000016,14691,2496,8466
12.879040530999646,1024,9906,0
12.883149071999924,3536,672,4465
12.886259027000051,14419,1360,0
12.89025389399967,19412,6625,0
12.894156690999807,16548,1360,3856
12.897249615999954,3344,5137,0
12.901224318999994,8290,4609,1136
12.905075491999924,992,1104,0
12.9082054229998,768,800,1696
12.912036044999695,14931,624,0
12.915100681999775,912,18708,0
12.919013351999638,12771,1024,0
12.922137127000042,5377,704,0
12.926028279999628,7345,8049,0
12.930099569000049,2352,4705,1136
12.933196578999741,880,256,0
12.93705739699999,4273,5905,0
12.940073432999725,4977,0,0
12.943256259999998,13875,768,0
12.94703166599993,2144,7425,0
12.950302159999865,1792,2304,0
12.954011223999714,7937,2928,0
12.957129503000033,144,448,0
12.96114074299976,0,2096,0
12.964224029999968,1744,1248,0
12.968138498999906,768,1504,0
12.971063380000032,4865,4785,0
12.975228258999778,5585,1792,0
12.978076503000011,1168,576,0
12.98217412599979,2640,1024,688
12.985147632000007,0,8962,0
12.989021586000035,6881,8898,320
12.992116802000055,0,368,0
12.996077477999734,9970,2976,0
12.999017796999851,0,1312,0
13.00219019699989,2096,1024,0
13.006277247000071,10802,12034,1792
13.010237349999898,976,608,14339
13.01411710299999,7537,2080,0
13.01716353799975,3840,1328,1984
13.021199215999786,5649,7937,0
13.024369438999656,4353,1072,0
13.028235969999969,4865,16131,0
13.032175931999973,14467,912,0
13.035207864999848,6449,7953,4257
13.038988997999695,1488,5825,0
13.0430208759999,8482,13939,0
13.046104101999845,7169,3152,0
13.050031776999731,4801,2304,0
13.053190925999843,18388,800,9986
13.05695677299991,2256,3520,0
13.060875227999986,1344,1280,0
13.064048751999962,10578,2256,0
13.067087721999997,0,2560,0
13.07101578799984,5217,6945,0
13.074945368000044,13299,1248,0
13.0779984159999,2640,7937,0
13.081915102000039,1200,2672,4865
13.085864399000002,22981,13379,0
13.088888306999706,19732,1024,0
13.092843100999744,7953,3344,1968
13.097041950999937,0,3920,4689
13.100123816999712,33032,5377,5425
13.104099894999763,2288,2784,0
13.107095557999855,592,0,0
13.111079738999706,9474,1120,0
13.113840544999675,8306,1696,0
13.117796669999734,1200,2000,0
13.120963197000037,10418,3824,0
13.125035260999994,8161,4913,0
13.12798600899987,3536,1792,0
13.13203346299997,6161,4993,0
13.135962920999646,15363,1024,0
13.138895593999678,2880,2720,16
13.143055473999993,1296,1760,0
13.14704284499976,14659,1264,4289
13.150096019999637,304,1168,0
13.154031918999863,17588,4145,0
13.157947954000065,10162,1856,1584
13.16124902599995,352,1888,0
13.165173518999836,35464,7905,0
13.168159395999737,1200,7937,2112
13.172201951999796,6689,7825,1632
13.176265670999783,14691,3328,1744
13.180256860999634,4657,6177,10306
13.18416598199974,1648,1152,768
13.187984495999899,6433,1456,1328
13.191217971999777,7569,9778,0
13.195223550999799,624,3952,9586
13.198314924999977,13571,7857,0
13.202202024999679,1024,3696,0
13.206150882999736,6257,2800,2144
13.20916544299962,4881,1136,0
13.213274936999824,18388,1392,5921
13.217249976999938,4657,1536,3760
13.221125652999945,2464,3376,0
13.224293545999899,16580,5889,8562
13.228070144999947,0,3584,5601
13.231306031999793,7217,576,0
13.236886085999686,1632,7089,0
13.238053005999973,624,688,0
13.242029399999865,1600,10546,0
13.245095263999701,528,3312,0
13.249013243999798,1824,720,608
13.252892448999773,2816,1616,96
13.25610195299987,5969,1216,256
13.260055776999707,3584,5153,1392
13.26396024199994,17332,2384,0
13.266975589999674,6401,13603,0
13.270899121999719,19460,288,656
13.27485175999982,9730,1440,0
13.277893179999865,15379,9954,9154
13.281861341999956,5601,6625,0
13.285804575999919,0,4641,1024
13.288858843000071,2000,5377,7521
13.292826723999951,1168,8514,0
13.296782532999714,528,768,12387
13.29981498799998,3472,2928,0
13.303813004999938,432,736,1952
13.306832542999928,5489,480,0
13.310930168999676,19428,1424,0
13.313843187999737,14707,3200,0
13.317831933999969,608,22885,2480
13.321863359999952,20260,3312,0
13.325841627000045,10242,1120,256
13.32886186199994,720,1568,0
13.332853347999844,0,5105,2544
13.335840874000041,6385,8530,0
13.339868557000045,12531,8001,0
13.342894591000004,0,1936,256
13.346806175999973,0,2288,0
13.349873851999746,11506,2448,6177
13.353868438000063,3376,11042,3072
13.357755948999966,4321,1312,5889
13.363374458999715,1968,1008,9762
13.365830534999986,20148,27734,0
13.368949456999871,9218,8802,20885
13.373802647000048,18324,10130,11522
13.37708477499973,43290,2736,0
13.380214710000018,0,1280,0
13.38411123800006,1616,5121,3504
13.38810840899987,5857,4305,0
13.391141298999628,6769,6913,0
13.395173705999696,17940,736,3168
13.39886229099966,6401,2656,3744
13.40203019899991,3328,2992,0
13.406035719999636,12403,4977,0
13.408820840999851,496,3360,0
13.41296335099969,3680,3440,0
13.416065710999646,528,1552,0
13.420074584999838,3120,5217,0
13.423901961999945,1136,4577,0
13.427130379999653,2544,2528,0
13.430948472999717,0,16211,7585
13.434016085999701,6529,4833,0
13.438105300999723,336,1344,1280
13.441318499999852,736,1024,0
13.445098472999689,0,7233,1376
13.448281243999645,0,4305,0
13.452126234999923,1024,1456,0
13.456146435999926,8450,2400,1760
13.45915346799984,5153,5041,0
13.463050651999765,14291,6817,0
13.466312733999985,33432,2480,0
13.470193368999844,352,320,0
13.473242620999827,20052,2576,0
13.47726852400001,14547,3104,3840
13.481030607999855,2576,592,0
13.484298663999652,9234,2448,0
13.48822163199975,1056,2144,0
13.491089556999668,9698,4897,0
13.494131876999745,656,0,0
13.498259915999824,10354,7377,3680
13.50200694599971,0,4929,0
13.50531270600004,8482,1584,256
13.50909955599991,304,2416,0
13.512297180999667,13043,6369,0
13.516108915999666,0,9218,4209
13.519205004000014,0,5233,0
13.523058182999648,2720,2880,752
13.526369128999704,5489,2352,0
13.530217549999634,10562,7841,0
13.534116922000067,18900,1760,0
13.537396919999992,4785,1472,6353
13.54112607099978,1488,2160,0
13.545131631000004,21525,7217,0
13.548402506000002,5329,6433,4161
13.552218144999642,2800,3552,6753
13.556311806999929,10834,5985,2080
13.56032751399971,5121,12563,5105
13.563420952999877,4961,3136,0
13.567332327999793,20452,6257,6913
13.571094877999712,11762,10578,464
13.575104304999968,11522,528,0
13.579035551999823,448,1360,2816
13.582091729999775,3152,2048,0
13.586023423999904,10978,4209,0
13.589193597999838,3440,5889,0
13.593145273999653,18148,1024,528
13.59711058899984,24694,13635,5153
13.601156586999878,19188,5601,1280
13.605079964999732,5025,2624,5409
13.609121906999917,23957,17188,13571
13.613221212999633,3920,19748,4929
13.616287697999724,2496,3360,2144
13.620160657999804,0,11922,10802
13.62416538699972,9394,14291,3072
13.62817511000003,12547,15619,5345
13.631951896999908,0,14195,14003
13.6351332549998,5345,3328,1840
13.638998549999997,11506,4241,0
13.642916017000061,1968,848,3328
13.64601175100006,19556,2928,0
13.64991979999968,24309,5025,256
13.653830342999754,6481,368,0
13.658101993999935,32119,5377,2784
13.661262125999656,6065,1376,0
13.665126369000063,16211,2064,0
13.66821878699966,0,6609,0
13.672059047999937,6001,2000,0
13.67513426000005,7905,5937,832
13.679178257999865,7217,48,6145
13.682148335999955,800,12082,0
13.686110559999634,1616,17412,2224
13.689868123999986,0,0,6401
13.693205471000056,15203,4657,3072
13.69716047599968,7057,4817,0
13.700893216999702,9394,6097,3856
13.704074293999838,1792,3008,0
13.708185084999968,12499,4721,21461
13.71221311499994,1680,12707,816
13.716160674999628,34296,12146,1312
13.720120473999941,3840,3120,0
13.723234411999783,14099,1328,1504
13.727305755999623,1904,11170,784
13.731196901999738,656,9330,0
13.73426382999969,10242,1632,0
13.73826255799986,0,6065,896
13.741428301999804,13571,1936,0
13.745205284999884,17412,1968,1920
13.749233311999888,0,4353,0
13.752202450999903,11378,1008,9170
13.756326543999876,18388,8033,0
13.760200974999862,9138,3024,0
13.763285590999658,8914,13235,6385
13.767441701999815,10866,13603,3984
13.771073702999729,0,8450,0
13.774267581999993,3872,15507,0
13.778213954999956,2864,16724,0
13.782168804999856,16980,7665,0
13.785286779999751,2208,1552,176
13.789179799000067,5377,6145,5681
13.793161357999907,14867,25462,1344
13.797051780999936,13267,4417,0
13.800326864999988,1904,5361,0
13.804085648999717,8033,1840,0
13.808330058999672,24533,6049,2672
13.81117187999962,3232,17716,0
13.81503296999972,240,3840,0
13.81811332899997,15987,5089,0
13.822066560999701,3424,5377,0
13.825945167999635,3328,7889,768
13.829143467999984,6305,4865,1792
13.833121726999707,12963,3104,3600
13.837100729999747,3792,8274,6177
13.84092461199998,9490,2048,0
13.84400315999983,11346,3040,9234
13.847938290999991,0,4609,2816
13.851929430999917,10066,6881,0
13.854928977999862,14387,6241,0
13.858882731999984,9474,752,0
13.861887129000024,8097,1504,0
13.864964830999725,0,2112,0
13.868916669999635,18084,6049,0
13.872871307999958,2448,2896,0
13.875925700999687,1264,2576,0
13.878905611999926,0,1872,0
13.882918168999822,1840,4353,5377
13.886895986999662,1568,1040,0
13.889884881999933,1456,1648,0
13.893888674999744,15027,5585,0
13.896929990999979,2704,4193,0
13.90091752699982,4881,21333,3344
13.904873702999794,11602,30967,0
13.908863130999634,4753,2304,1072
13.911895919000017,224,11698,0
13.915882539999984,5601,12034,736
13.919907594000051,15539,2336,0
13.92293087400003,10770,4465,0
13.92694364199997,19796,4865,0
13.930917403999956,7937,2352,0
13.933934278999914,14899,2608,2304
13.937908676999996,880,5937,0
13.941876384999887,15475,0,3888
13.945194392999838,10242,4689,0
