time,emg1,emg2,emg3
0.004703316999894014,2336,0,0
0.007687685999826499,2560,0,0
0.010681754999950499,0,0,0
0.013690990000213787,848,832,0
0.017607249999855412,416,1168,0
0.020659931999944092,1040,1376,0
0.024611560000266763,5105,3440,0
0.027652216000205954,4241,2080,0
0.03162454199991771,720,144,368
0.034607560000040394,256,624,0
0.03859200900024007,3536,1296,0
0.04167522199986706,528,2816,0
0.045613549999870884,4881,3504,0
0.04862478499990175,2816,1552,0
0.052567591999832075,0,880,96
0.05560567700013053,432,896,0
0.058633488999930705,2064,1568,0
0.06260956300002363,3888,2352,0
0.0665825109999787,7057,1360,0
0.06959593500005212,3184,2320,0
0.07264627899985499,320,752,0
0.07662182100011705,4433,2928,0
0.08059746900016762,4129,1360,0
0.08360941299997648,3920,1808,0
0.08754683699999077,1536,528,0
0.09138728700008869,2720,2816,0
0.0936309789999541,128,1808,0
0.09765791600011653,3296,2704,0
0.10093724599983034,352,1552,0
0.10502616800022224,5441,6033,0
0.10890766500006066,3088,1280,0
0.11170711000022493,3488,2432,0
0.11499354700026743,464,704,0
0.11897424000017054,4241,3088,0
0.12203827199982697,0,1872,0
0.12599261700006537,6913,2384,0
0.12867826399997284,3488,1840,0
0.1328329460002351,176,1120,0
0.13588074600011169,864,3264,0
0.1397942220000914,1248,1488,0
0.14285688400013896,256,1312,0
0.14676405599993814,4785,2912,0
0.14988018400026704,1840,2256,0
0.15393885200001023,0,768,0
0.1568697190000421,2048,1792,0
0.15996965700014698,2224,816,0
0.1639712609999151,3552,2304,0
0.16796560100010538,1248,1312,0
0.17093372999988787,2080,2848,0
0.1750041790000978,352,1216,0
0.1781020910002553,800,2768,0
0.181980964000104,2080,2304,0
0.18507919200010292,4209,1744,0
0.18904037199990853,3840,1584,0
0.19194101499988392,928,2304,0
0.19505841299996973,48,1120,0
0.19895247500016922,1456,5281,0
0.20195413000010376,224,1632,0
0.20595210700003008,6881,5649,0
0.2091860320001615,2944,2240,0
0.21299858500015034,1792,2720,1536
0.21685051099984776,0,1552,0
0.21999038900003143,3744,2576,0
0.2239408169998569,1248,1296,0
0.22704016599982424,1632,2000,0
0.2308843790001447,2288,1760,0
0.233885612999984,0,2048,0
0.2379624430000149,2848,2080,0
0.24099353800011158,3008,2144,0
0.2448597500001597,1760,2176,0
0.24797197599991705,2352,1264,0
0.25185071299983974,1088,1520,0
0.25496670400025323,0,1232,0
0.25803751300009026,2928,560,0
0.2618571440002597,0,8466,0
0.26495691499985696,5265,1792,0
0.2688730640002177,2352,2320,0
0.27189831800023967,0,1552,0
0.2750061420001657,464,720,0
0.27889745699985724,1024,3024,0
0.2818645299998934,1360,2576,0
0.28577751500006343,5889,4097,0
0.28971486699992965,4353,1552,0
0.29271160600001167,1424,1792,0
0.2957577699999092,944,576,0
0.29984732499997335,1456,5393,0
0.3029137250000531,816,1664,0
0.30687901900000725,5889,6913,0
0.3098733130000255,400,1584,0
0.3139517409999826,16,6417,0
0.31690835400013384,2576,1344,0
0.32089799200002744,80,1776,0
0.32391317300016453,2864,1760,0
0.3278502140001365,832,1584,0
0.3310005920002368,1744,2368,0
0.3339106670000547,0,1104,0
0.3378741239998817,4849,3040,0
0.34090299599984064,256,1296,0
0.3449456379998992,5281,3056,0
0.3479063039999346,2976,880,0
0.3519636390001324,400,5041,96
0.35498683500009065,0,1120,0
0.35885625299988533,3824,1568,0
0.3620327910002743,0,1424,0
0.36599198000021715,1504,1568,0
0.36903874900008304,5121,2160,0
0.3728275379999104,256,1008,0
0.3760808199999701,624,112,0
0.37906424999982846,3408,320,0
0.38290295100023286,1792,5585,0
0.3862025460002769,2672,1936,0
0.39008484800024235,7169,3584,0
0.3931947639998725,160,1376,0
0.3968086380000386,0,4257,0
0.3999870560001,3024,1584,0
0.40392618600026253,1648,1584,0
0.40703825599985066,2304,2448,0
0.4110577259998536,2128,1616,0
0.4139891129998432,208,1488,0
0.4180655529999058,80,2016,0
0.4209968640002444,1632,2032,0
0.4248887459998514,1584,1696,0
0.42812520600000425,2992,1792,0
0.4320418779998363,1248,2160,0
0.43497818400010146,256,992,0
0.4390462340002159,2816,928,0
0.4420177900001363,2160,2272,0
0.4460665400001744,4977,1968,0
0.44899444000020594,4833,1344,0
0.45289566000019477,0,2272,0
0.45599841600005675,2144,2544,0
0.4600042540000686,3568,944,0
0.4630519719999029,3536,2304,0
0.46698013700006413,2304,2400,0
0.46999037000023236,2976,2016,0
0.47301265099986267,16,1248,0
0.47694300000011935,2816,2592,0
0.48081726700002037,1136,1792,0
0.4839391059999798,560,1504,0
0.48698518499986676,768,2304,0
0.49088383400021485,3360,2848,0
0.4939324840001973,0,1440,0
0.497135814000103,0,528,0
0.5009250190000785,7841,4705,0
0.5040542820001974,2768,848,0
0.5080311870001424,1376,6705,0
0.5118554919999951,1344,2656,0
0.514912810000169,1328,1648,0
0.518894543999977,2320,2064,0
0.5221420660000149,1664,2288,0
0.5259371420002026,4145,2160,0
0.5291540799998984,4385,1440,0
0.5321962769999118,0,256,0
0.5359391360002519,0,4337,0
0.5391571989998738,1360,1328,0
0.5429187400000046,1296,1808,0
0.5460009729999911,4657,2320,0
0.5498522679999951,3632,2816,0
0.5529070030002003,0,1264,0
0.5559533040000133,0,1200,0
0.5598694189998241,1904,7745,0
0.5629720179999822,1248,1280,0
0.5667592089998834,5425,3552,0
0.570690144999844,2304,1728,0
0.573689098000159,3664,2240,0
0.577669435000189,976,2048,0
0.5807227330001297,5457,3312,0
0.5846663259999332,2736,1024,0
0.587838894000015,2720,1792,0
0.5917995410000003,2480,3424,0
0.5949659540001448,0,1280,0
0.5979878650000501,2384,1184,0
0.601872294000259,5377,3184,0
0.6058453360001295,5153,1776,0
0.608960555000067,4641,2832,0
0.6118964380002581,0,1280,0
0.6159623819999069,512,7265,0
0.6188694170000417,2832,1136,0
0.622827511000196,1568,1888,0
0.6259083009999813,5121,2080,0
0.6297414639998351,4177,6977,0
0.6328472290001628,0,2048,0
0.6357938999999533,0,768,0
0.6399064910001471,2192,4657,0
0.642986793000091,1184,2064,0
0.6470110069999464,8113,3824,0
0.6508176070001355,1760,2368,0
0.6539271639999242,1584,1280,0
0.6580560440002046,1248,1280,0
0.660999651000111,2400,1776,0
0.6650789079999413,1168,1280,0
0.668134868999914,544,1792,0
0.6718916039999385,880,2048,0
0.6751452490002521,176,2640,0
0.6789716210000734,1568,1584,0
0.682013784999981,1680,2160,0
0.6860561859998597,4817,2352,0
0.6890310650001084,4833,2096,0
0.692865041999994,528,1296,0
0.6959129629999552,256,1120,0
0.700017133000074,4097,1696,0
0.7029918620000899,1024,1456,0
0.7070310120002432,4961,1984,0
0.7100478769998517,3392,2608,0
0.7130153920002158,32,992,0
0.7171490499999891,1792,2320,0
0.7202566360001583,3808,944,0
0.723882820000199,5873,3696,0
0.7280061440001191,1200,1456,0
0.7310301430002255,2192,2512,0
0.7350508389999959,1024,1568,0
0.7381207230000655,592,1104,0
0.7418408849998741,752,2160,0
0.7450011430000814,4689,1904,0
0.7488392909999675,1616,688,0
0.751963127000181,2560,2640,0
0.7552001819999532,0,1184,0
0.7590931250001631,800,2496,0
0.7620572790001461,1776,2144,0
0.7660061040000983,5889,1568,0
0.769201836999855,4097,1664,0
0.7731122589998449,0,4417,1280
0.7761697320001986,0,1952,0
0.7799070430000938,2048,2128,0
0.7829545909999069,688,2048,0
0.7870683280002595,3840,2160,0
0.7901843190002182,2752,2208,0
0.7939111649998267,768,1280,0
0.7969422390001455,256,784,0
0.8009391049999977,1696,2064,0
0.8040388449999227,3840,2128,0
0.808073682000213,1968,2448,0
0.8110339770000792,1424,1056,0
0.8148265410000022,0,1392,0
0.8179651949999425,3680,2608,0
0.8218264520000957,880,1952,0
0.8250150899998516,3888,2704,0
0.829013464000127,2848,1472,0
0.8319450670001061,2592,2368,0
0.8351006950001647,0,1152,0
0.8389436229999774,1264,8145,0
0.8416825180001979,32,1120,0
0.8457193429999279,6513,2352,0
0.8487363760000335,4865,2192,0
0.8527166960002432,576,6945,208
0.8557649370000036,0,768,0
0.8599021800000628,4673,944,0
0.8628370609999365,1312,2144,0
0.8669400429998859,4977,1424,0
0.8698572260000219,2800,1968,0
0.8728131240000039,0,16,0
0.8769194430001335,256,2224,0
0.8796928940000726,3296,960,0
0.8838987889998862,704,1792,0
0.8868441710001207,3184,1936,0
0.8909529369998381,864,1872,0
0.8938608530002057,816,1296,0
0.8969323520000216,32,1072,0
0.9009186600001158,6497,2864,0
0.9047208950000822,1584,1520,0
0.9078819430001204,2416,1776,0
0.9119805870000164,672,1792,0
0.9150845859999208,1264,1424,0
0.9189178269998592,1792,1200,0
0.9221428480000213,912,1232,0
0.926078508000046,3296,2000,0
0.9290512520001357,5201,2304,0
0.9328114820000337,720,1168,0
0.9359692030002407,352,1968,0
0.939917757999865,2608,2080,0
0.9429849490002198,2528,2416,0
0.9469434980001097,4961,1968,0
0.9501843130001362,3760,2304,0
0.9538596190000135,624,848,0
0.957150508000268,1456,2160,0
0.9610684519998358,3248,1904,0
0.9639968820001741,1792,1744,0
0.9680908780001118,1616,1872,0
0.9711771219999719,1376,1776,0
0.9750838859999931,768,288,0
0.9781388629999128,2256,2048,0
0.9820331559999431,768,2144,0
0.984968210000261,3312,3152,0
0.9890668940001888,2624,2048,0
0.9921247339998445,0,1488,0
0.9951915740002732,0,1552,0
0.9988693630002672,2480,368,0
1.002180755000154,1248,1136,0
1.006097557999965,2512,2080,0
1.009074235999833,4801,1584,0
1.0130787130001409,320,2528,0
1.016132849999849,672,1840,0
1.020083171999886,2736,3328,0
1.0231775840002229,1280,1824,0
1.0271413099999336,4385,2384,0
1.0302901300001395,1600,1104,0
1.0339074190001156,0,688,0
1.0370022759998392,2224,2064,0
1.0409837940001125,3696,1360,0
1.0440318800001478,2912,1712,0
1.0480006170000706,2176,1008,0
1.0510106960000485,1744,1264,0
1.054138874000273,0,912,0
1.0581042789999628,624,1328,0
1.0610222509999403,1024,2512,0
1.0651170239998464,3072,7217,0
1.068216331000258,1200,1280,0
1.07215069699987,560,4385,0
1.0751540669998576,0,1216,0
1.0790958239999782,2784,2480,0
1.0821937740001886,1136,1808,0
1.086070003000259,2960,2912,0
1.0892035669999132,4529,2320,0
1.0931198200000836,1024,2080,0
1.096155232000001,0,1136,0
1.1000684919999912,3056,1024,0
1.10318235800014,1776,1360,0
1.1069694749999144,2992,2400,0
1.11000279100017,3072,1808,0
1.113846538999951,416,560,0
1.1169641490000686,512,944,0
1.120833391999895,3136,2560,0
1.1239800869998362,3040,2064,0
1.1278938640002707,2464,1504,0
1.1309837180001523,2304,3056,0
1.13487091900015,320,1200,0
1.1379556500000945,768,4353,0
1.141744868999922,1792,1280,0
1.1448718589999771,3072,2608,0
1.1487624269998378,3952,1456,0
1.1517353889998958,0,2208,0
1.1550039120002111,368,1328,0
1.1589748659998804,1024,5649,0
1.1619929180001236,1840,2144,0
1.1659888369999862,4577,3376,0
1.1690135690000716,4865,2704,0
1.172874929000045,1792,1568,0
1.1759999450000578,0,1536,0
1.1798697150002226,992,1632,0
1.1828960650000226,0,1232,0
1.1869270739998683,2816,1744,0
1.1899930580002547,4401,2512,0
1.1930153050002446,0,368,0
1.1960559479998665,0,992,0
1.1998636650000662,3440,3072,0
1.203047166000033,688,2096,0
1.2070504530001926,4897,2992,0
1.210885380000036,3072,2768,0
1.2138712770001803,2224,1600,0
1.2178632449999895,448,1568,0
1.22115431300017,4865,2336,0
1.2250496999999996,1200,592,0
1.2279982310001287,2592,1024,0
1.2320472860001246,256,1376,0
1.2351552099999026,1648,2592,0
1.238927483000225,3376,1824,0
1.2421605859999545,768,2320,0
1.2459209220000957,4048,2272,0
1.249128681000002,4801,2672,0
1.2523445840001841,0,848,0
1.2560452410002654,0,1456,0
1.2591483689998313,2352,1568,0
1.2628987819998656,480,1568,0
1.2661170090000269,6801,1760,0
1.2700324329998693,5585,2416,0
1.272880625000198,0,1120,0
1.2761563270000806,128,688,0
1.2800429620001523,1872,2400,0
1.2831304139999702,432,1760,0
1.2869423520000964,2336,1904,0
1.2900157270000818,4097,1120,0
1.2939746329998343,0,1024,864
1.297045043000253,0,1328,0
1.3010234869998385,4097,1744,0
1.304033951999827,1456,2704,0
1.3080210580001221,3104,2208,0
1.311035338000238,1744,1632,0
1.3149133970000548,1280,1280,0
1.3181899569999587,1072,2016,0
1.3220587280002292,160,720,0
1.3251455750000787,1792,1520,0
1.3290744149999227,3424,2000,0
1.3322174879999693,2816,1808,0
1.3358898179999414,0,2304,0
1.339012928000102,4129,1504,0
1.343084122000164,1328,2560,0
1.3462903849999748,3328,2560,0
1.3501101820002077,4016,1312,0
1.353086887000245,592,2080,0
1.3561098380000658,0,1472,0
1.3601555700001882,2928,5553,0
1.3633914870001718,1024,1648,0
1.3671258120002676,5681,2096,0
1.370895174999987,2592,1792,0
1.3740337409999483,2832,1584,0
1.378053029000057,256,3632,0
1.381129116000011,4145,2464,0
1.384947651999937,2160,1552,0
1.3881323410000732,1808,0,0
1.3912257930001033,1344,1328,0
1.3951106439999421,0,4657,0
1.3981639970002107,944,1648,0
1.40207049799983,2336,1792,0
1.4050771229999555,2864,2608,0
1.4089233509998849,2672,2656,0
1.411964277000152,1104,992,0
1.4158239739999772,0,1344,0
1.4189047109998683,4353,2608,0
1.4218783300002542,0,1968,0
1.425782770999831,3760,1840,0
1.4288438520002273,5201,1728,0
1.4327298480002355,1312,7441,944
1.4366709350001656,2464,3024,0
1.4397278010001173,2432,1728,0
1.4438680200000817,1232,1104,0
1.4469400510001833,4881,2224,0
1.451080130000264,2672,3184,0
1.4539538730000459,0,1024,0
1.4570248569998512,672,1584,0
1.460770711999885,5105,4257,0
1.4649326849998943,1680,2672,0
1.4679993400000058,2000,1808,0
1.471976645000268,2288,2480,0
1.4750259940001342,928,1280,0
1.4789848230002463,2192,1808,0
1.4819002909998744,992,2048,0
1.4859873069999594,1456,2096,0
1.4889880830000948,4673,2704,0
1.4929387410002164,976,1568,0
1.4959464250000565,1200,1792,0
1.4999617520002175,3616,1792,0
1.5030450360000032,96,1312,0
1.507058405999942,5601,2544,0
1.5100624830001834,4785,1904,0
1.5131303789999038,0,2016,0
1.5171639400000458,256,7329,0
1.5202159119999124,1632,1648,0
1.5239839500000016,1568,2208,0
1.527267934000065,3840,1280,0
1.5311333390000073,1280,3568,0
1.5341685769999458,592,1168,0
1.5381342340001538,2480,4369,0
1.541248262999943,1248,1600,0
1.5450305079998543,5121,4289,0
1.5488974959998814,1024,2064,0
1.552067298000111,1760,2560,0
1.555240853000214,736,784,0
1.559127883000201,6913,2816,0
1.5622115060000397,240,800,0
1.5660049100001743,4961,5601,0
1.5692574830000012,5457,2096,0
1.5730018290000771,0,3376,704
1.576223060999837,464,1808,0
1.5799667280002723,2048,1312,0
1.5830486710001423,256,1840,0
1.587051934000101,5457,1968,0
1.590275462000136,2816,1856,0
1.593938130999959,0,5265,0
1.5970552490002774,288,1616,0
1.6011015300000508,2624,2736,0
1.6040154890001759,1440,1120,0
1.608114561000093,1280,1376,0
1.6112292560001151,1040,2528,0
1.614882408000085,0,1648,0
1.6181920710000668,1968,1472,0
1.6220517010001458,752,1280,0
1.625190719999864,3328,1792,0
1.6290892309998526,2096,2608,0
1.63199709599985,80,3056,0
1.6352590430001328,176,1296,0
1.639159275000111,3024,4529,0
1.6421300060001158,1024,2816,0
1.646001716000228,6257,2912,0
1.65006170200013,3840,2032,0
1.6531520839998848,976,1280,0
1.6562211730001763,0,1024,0
1.660129063000113,1520,1792,0
1.6631893369999489,1248,4625,0
1.6670633769999768,5105,8338,0
1.6702015119999487,2080,1152,0
1.6739952010002526,3840,2528,0
1.6771570000000793,112,1248,0
1.6810028640002201,1456,4401,0
1.6841009439999652,1312,1696,0
1.6879600030001711,2864,2576,0
1.6910858310002368,496,1808,0
1.6950026210001852,3760,3360,0
1.6981177470001967,0,2096,0
1.7017808939999668,0,2608,0
1.7050576999999976,2608,2816,0
1.708164811000188,640,672,0
1.7119032059999881,5377,3920,240
1.715735273000064,624,1232,0
1.7188255360001676,2048,1120,0
1.722697872000026,496,2304,0
1.7257755629998428,5121,2064,0
1.7296956620002675,4625,2480,0
1.732679212000221,0,1184,0
1.7360010719999082,32,768,0
1.7400024090002262,2096,1392,0
1.7430308349998995,1120,1696,0
1.746898685999895,5969,2528,0
1.7499060519999148,3280,1792,0
1.7538964200002738,0,4321,0
1.757022121999853,1792,1520,0
1.7610403389999192,2448,1280,0
1.7639832710001428,1072,1024,0
1.7679769020001004,3376,1904,0
1.771085643999868,1248,2256,0
1.7749876699999731,0,1408,0
1.777965769000275,2656,1632,0
1.781965024999863,2688,2336,0
1.7848657109998385,2384,768,0
1.7888332719999198,1824,896,0
1.7919970640000429,1280,1728,0
1.795799965000242,496,1344,0
1.7990083849999792,2992,0,0
1.802110499000264,1056,1792,0
1.8059967770000185,2704,4064,0
1.8091665370002374,5137,2416,0
1.812999640000271,3776,2896,144
1.816017550000197,0,1440,0
1.820123429999967,8370,3840,0
1.8231908480001948,144,1040,0
1.827052730000105,8386,1280,0
1.8309555119999459,3248,2912,0
1.8340366410002389,2400,1776,0
1.837133139999878,0,1696,0
1.8409855740001149,4545,1040,0
1.8440442000000985,592,1072,0
1.8479687939998257,2672,592,0
1.8512093230001483,768,1984,0
1.854107613999986,0,1776,0
1.8581754990000263,2848,2464,0
1.8620568569999705,1792,1136,0
1.865192173000196,2208,2592,0
1.8690894920000574,2160,1280,0
1.872173297000245,592,1632,0
1.8752640299999257,0,1328,0
1.8790766729998722,0,256,0
1.8822099570002138,2672,4145,0
1.8861027699999795,2160,2064,0
1.8892109779999373,3072,2000,0
1.893082338000113,768,1440,0
1.89610207800024,368,768,0
1.899257513000066,5585,592,0
1.903098970999963,0,3552,0
1.906216557999869,5073,1824,0
1.9101278399998591,3328,3040,0
1.9130531579999115,0,1456,0
1.916193094999926,0,624,0
1.9201067510002758,1056,2256,0
1.923181454999849,528,1280,0
1.9271146730002329,3168,2336,0
1.9300458530001379,4113,1824,0
1.9339982279998367,128,1184,784
1.9371398960001898,864,1136,0
1.9411707350000142,1024,7265,0
1.9442115639999429,1584,496,0
1.947985257000255,4353,1824,0
1.9512349330002507,240,1184,0
1.9549238150002566,16,6673,0
1.9582030259998646,880,1056,0
1.9621235650001836,2080,976,0
1.9651795790000506,2080,1200,0
1.9690846590001456,1504,768,0
1.9722089659999256,1696,2144,0
1.9752378859998316,0,784,0
1.9782320479998816,0,96,0
1.9821427520000725,1536,2816,0
1.9858957740002552,3152,1952,0
1.9890755219998937,3664,2928,0
1.992904660000022,3488,2768,0
1.9960340440002255,256,1456,0
1.9998377729998538,2608,1872,0
2.002954214000056,2032,1280,0
2.006762394999896,3520,2896,0
2.0098891400002685,4401,1632,0
2.012804337000034,0,1120,0
2.0167339019999417,944,2784,0
2.0198274079998555,2960,1744,0
2.023696898000253,4785,3152,0
2.0280104110001957,2320,1568,0
2.031088170000203,2816,2832,0
2.0339126849999047,480,880,0
2.037939103000099,0,6449,0
2.0410986960000628,3072,1264,0
2.0450148919999265,1792,2304,0
2.0480274619999363,1792,1888,0
2.0520187189999888,2336,2128,0
2.055060021999907,0,512,0
2.058050446999914,560,256,0
2.062000547000025,0,7121,0
2.0649971630000437,2096,1792,0
2.068978664000042,2816,2272,0
2.0720316890001413,384,928,0
2.075110132000191,112,0,0
2.0789961479999874,1264,2528,0
2.0820722449998357,560,1328,0
2.0860780670000167,2496,2064,0
2.089140402999874,4305,880,0
2.093136052999853,2160,2992,0
2.09601590200009,0,544,0
2.1000661050002236,5009,1280,0
2.1031672130002335,1552,2576,0
2.107143553000242,2896,2160,0
2.110204913999951,4497,2576,0
2.1129822259999855,0,160,0
2.117046334999941,256,1216,0
2.1203034720001597,3424,2176,0
2.1240464490001614,2640,2208,1776
2.128108490000159,6145,1520,0
2.1311980410000615,1856,1872,0
2.1340286129998276,0,2384,0
2.138049699000021,6689,3360,0
2.1420692080000663,1424,1312,0
2.1452094159999433,3984,2208,0
2.1482715470001494,1472,336,0
2.1521687879999263,1872,2352,0
2.155238891999943,0,928,0
2.159072147000188,1024,0,0
2.162188478000189,3984,1952,0
2.166104305999852,1872,1456,0
2.1691711190001115,5025,2256,0
2.1722471389998645,0,1536,0
2.1761269180001364,0,5537,0
2.1790633169998728,4289,1920,0
2.1831101510001645,416,2128,0
2.1861735799998314,3888,1648,0
2.190081409999948,5377,2816,0
2.1931962710000334,528,1200,0
2.19688607199987,48,1168,0
2.200023346999842,3616,2816,0
2.204009092999968,1248,1936,0
2.207116909999968,3184,1680,0
2.2111108710000735,1776,2448,0
2.214029442000083,944,1120,0
2.217944364000232,176,2000,0
2.2212275309998404,5457,1616,0
2.224947967999924,1552,1632,0
2.228040991999933,1968,1280,0
2.2319682380002632,608,1312,0
2.2351942340001187,0,1088,0
2.2381693140000607,1168,1280,0
2.242166245000135,6497,3072,0
2.245947460000025,3216,1792,0
2.2491736360002506,3040,1296,0
2.2529503880000448,672,1872,0
2.256039238000085,1568,1696,0
2.2600235720001365,2320,560,0
2.2630158880001545,1488,2336,0
2.266967693999959,3872,1776,0
2.2701901059999727,4273,1360,0
2.273215745000016,0,784,0
2.276842108999972,0,352,0
2.280033809000088,4705,2880,0
2.2831841259999237,16,1504,0
2.287039231000108,5857,5137,0
2.290256037999825,3600,2576,0
2.2938837579999927,4353,3024,0
2.2969223860000056,256,800,0
2.3007949890002237,3488,6801,0
2.3038086740002655,272,2160,0
2.307720048000192,5217,7377,0
2.3108179569999265,1824,1712,0
2.3149238280002464,0,3584,0
2.3180460510002376,1648,1728,0
2.3220774999999776,2928,1456,0
2.32503359500015,2752,1744,0
2.3288508000000547,4064,1648,0
2.331925830000273,0,1616,0
2.335075697999855,0,1312,0
2.33899015399993,2160,3536,0
2.3420168299999204,1040,1168,0
2.3458045990000755,4032,2608,0
2.348977305000062,4064,960,0
2.3529860940002436,4000,2736,0
2.3560160900001392,256,464,0
2.3599050689999785,1360,6433,0
2.3630178789999263,752,1216,0
2.3669476509999186,4769,4865,0
2.3699802649998674,3632,2672,0
2.373844075999841,0,3232,0
2.37705691400015,192,1280,0
2.381016355000156,2224,1024,0
2.383842186000038,1296,1520,0
2.3879313590000493,5105,2048,0
2.391163826000138,784,1328,0
2.39511544700008,400,1360,0
2.398231933000261,2000,688,0
2.4019126890002553,1216,2048,0
2.4051325770001313,2272,1712,0
2.4089238430001387,1456,1376,0
2.41216120900026,336,2352,0
2.4150445280001804,0,880,0
2.4190218319999985,256,0,0
2.422105264000038,368,1328,0
2.425822102999973,2624,1008,0
2.4290320770001017,4449,3408,0
2.4322352069998487,416,160,0
2.436201785999856,2912,3840,0
2.440075457000148,3376,1072,0
2.4431802540002536,3712,2192,0
2.4469807850000507,4385,1280,0
2.450209585000266,5041,1872,0
2.4538897850002286,768,1264,0
2.457012289999966,112,1712,0
2.4609270070000093,1840,1392,0
2.464228209999874,1888,1280,0
2.4698656189998474,2096,1200,0
2.471115137000197,2080,1376,0
2.4748654240001997,112,768,0
2.4779869940002754,1952,2320,0
2.481873392000125,2448,1232,0
2.4850051439998424,2352,1792,0
2.488880685999902,2192,1744,0
2.4920144400002755,208,1024,0
2.495723533000273,304,720,0
2.498728081000081,5217,2960,0
2.5027223990000493,2400,1264,0
2.505750113999966,3264,2528,0
2.5097274499999003,4353,1520,0
2.5127847019998626,656,1984,0
2.5157867120001356,0,1024,0
2.51976363499989,1328,7633,0
2.522812841999894,0,256,0
2.5267861050001557,3632,1216,0
2.529785601000185,4465,2416,0
2.533536174999881,0,448,0
2.5366959440002574,80,1392,0
2.539727698000206,2816,1024,0
2.5436629079999875,32,2800,0
2.5467254710001725,4369,1584,0
2.550702246000128,2592,928,0
2.5536776260000806,224,1264,0
2.556733554999937,0,1328,0
2.560752375999982,256,1760,0
2.563750241999969,1136,1568,0
2.567696579999847,6401,1280,0
2.570763111999895,1200,1392,0
2.574763101999906,0,6321,0
2.577700821000235,1792,1104,0
2.5817921220000244,4945,416,0
2.5848186260000148,3296,1488,0
2.5890085510000063,2752,1280,0
2.5921310769999764,1968,2160,0
2.5951509289998285,0,880,0
2.599052264999955,5345,4449,0
2.602970938999988,1008,1200,0
2.6060760870000195,3584,2832,0
2.6100065149998954,4657,1280,0
2.612955377000162,0,1536,0
2.6160001150001335,1312,784,0
2.619896212000185,816,736,0
2.6232298559998526,816,1328,0
2.6270561470000757,2928,2048,0
2.6300600670001586,4177,848,0
2.63330334200009,656,512,0
2.6371463049999875,2256,1792,0
2.6410863370001607,1968,1328,0
2.6439914769998722,2416,1840,0
2.6478539280001314,2496,848,0
2.6510574600001746,2304,1312,0
2.6541148989999783,528,832,0
2.6580836440002713,4481,3856,0
2.6620622720001847,3184,1712,0
2.6652335210001183,3856,2000,0
2.668990155999836,1024,1024,0
2.6722342359998947,1248,1840,0
2.675266445000034,0,960,0
2.6789173400002255,0,528,0
2.6821884460000547,880,400,0
2.685253146999912,2064,1632,0
2.6890522720000263,2048,7441,0
2.692254425000101,0,1280,0
2.6952921850001985,0,752,0
2.6990214930001457,2688,4849,0
2.7022507930000756,944,1328,0
2.7060595409998314,2352,4369,0
2.709159692999947,2304,2304,0
2.713000534999992,2672,2288,0
2.716094516999874,0,848,0
2.7199865150000733,2304,1104,0
2.723010284999873,800,1008,0
2.7270672180002293,3728,1312,0
2.730090365000251,4865,432,0
2.7338908810002067,720,1536,0
2.7371236459998727,1136,1728,0
2.741001376999975,2912,1088,0
2.7439886910001405,1232,1600,0
2.748026649000167,4865,2096,0
2.751264982000066,2816,2464,0
2.755075816000044,0,1168,0
2.7581878060000236,1888,1328,0
2.762170427000001,2000,1056,0
2.7652412329998697,2944,2112,0
2.768902826000158,1408,800,0
2.772165567000229,2240,1792,0
2.775230325999928,0,1120,0
2.7789002240001537,4881,3072,0
2.7829114310002296,1568,1984,0
2.786117975000252,3584,3152,0
2.7900632250002673,4817,1568,0
2.7930462560002525,1040,1840,0
2.796966674000032,208,1120,0
2.8003014270002495,3440,1392,0
2.803901408999991,848,1488,0
2.807150454999828,6001,2320,0
2.810981940000147,1584,480,0
2.814038289000109,1264,1888,0
2.817943016999834,256,2016,0
2.8212051400000746,5073,2032,0
2.8251117859999795,816,1568,0
2.8280517279999913,3984,2240,0
2.831928077000157,1520,1024,0
2.835004425000079,80,608,0
2.8380343630001335,0,768,0
2.841955452000093,1088,2272,0
2.8450561479999124,3856,1600,0
2.848915020000277,768,1024,0
2.852056029999858,2288,2560,0
2.8550728430000163,0,1280,0
2.8590340270002343,1248,5201,0
2.861961301000065,544,1184,0
2.8659116750000067,2672,4097,0
2.86891090600011,4577,1680,0
2.872826805999921,3760,2656,0
2.8759632920000513,0,848,0
2.879960111999935,2224,1792,0
2.883037707999847,928,1648,0
2.886833067000225,4881,1904,0
2.890005848999863,4785,1616,0
2.893092539999998,0,656,0
2.897058014999857,416,4113,0
2.9000950570002715,3264,1840,0
2.9039233940002305,944,3760,0
2.907082606000131,3344,560,0
2.9109709740000653,3344,1024,0
2.9138682339998923,0,1008,0
2.9170504869998695,0,0,0
2.9209663980000187,2848,1024,0
2.9238743949999844,608,1328,0
2.928059155000028,1488,1360,0
2.9310404430002563,2560,1376,0
2.9340372510000634,0,912,0
2.9380108989998917,592,5889,0
2.9410705770001186,1088,2048,0
2.9450660600000447,1456,5121,0
2.9483187979999457,1440,1616,0
2.9521842780000043,4353,1824,0
2.955302750000101,80,1280,0
2.9590577899998607,640,1648,0
2.962324783999975,1632,1360,0
2.966220834000069,3344,2128,0
2.969150195000111,4305,1744,0
2.973023669000213,5121,6353,0
2.9761101909998615,0,1120,0
2.980034279999927,2624,1136,0
2.983133036000254,816,1536,0
2.9871051559998705,2896,1632,0
2.9900778700002775,4401,2048,0
2.9939994709998246,288,1504,0
2.9972188490000917,0,720,0
3.000175806000243,2544,864,0
3.0040280890002578,1360,6097,0
3.0072314210001423,2768,1424,0
3.0111359070001527,5889,3088,0
3.01412948899997,0,1200,0
3.0180840299999545,0,1248,0
3.0210772059999726,4273,1552,0
3.0251213940000525,1632,992,0
3.0282310160000634,2528,1328,0
3.032144369999969,2048,1088,0
3.0352372900001683,752,1664,0
3.0389725830000316,464,2304,0
3.0422143999999207,3248,2096,0
3.0459960540001703,2352,1488,0
3.049103635999927,1808,2816,0
3.053070243000093,496,1504,0
3.056246934000228,688,1424,0
3.0592010420000406,2976,912,0
3.0630612620002466,4097,3328,0
3.0671229330000642,4593,2464,0
3.070159521000278,5393,2864,0
3.0739049789999626,560,2016,0
3.077105943999868,160,1792,0
3.0809577009999884,2464,1024,0
3.084075041000233,4097,3600,0
3.0880244660002063,4257,1648,0
3.0910544009998375,2528,2576,0
3.094055471000047,0,1104,0
3.098056664000069,304,7345,0
3.1012810980000722,3792,768,0
3.1050311290000536,2928,2048,0
3.108173347000047,2256,2576,0
3.1120055960000172,2480,5889,0
3.1152766400000473,0,1024,0
3.1190062300001955,1104,864,0
3.1222695619999286,1232,1712,0
3.126029760000165,2144,1520,0
3.1291182240001945,1536,1536,0
3.1329480529998364,32,1104,0
3.1361020340000323,736,1936,0
3.139225692999844,2304,0,0
3.142861889999949,0,1840,0
3.1459433730001365,2896,2416,0
3.1498464559999775,3248,1712,0
3.1528425480000806,0,1200,0
3.1558498539998254,0,768,0
3.1597592930002065,3328,1312,0
3.1628215539999474,1024,1824,0
3.1670076189998326,4000,2384,0
3.1701109860000543,6513,2144,0
3.173909146999904,768,2416,0
3.177094166000188,624,1024,0
3.1810107010001047,3168,992,0
3.183922635000272,1376,1808,0
3.1878275700000813,3088,800,0
3.1910350090001884,2784,1136,0
3.1948075770001196,176,816,0
3.197999629000151,1120,2320,0
3.202034437999828,1968,1936,0
3.205041539999911,2064,1200,0
3.208732532999875,672,2304,0
3.211821554999915,2304,2336,0
3.215062445000058,320,800,0
3.2190361799998755,4625,2512,0
3.222056522999992,768,1280,0
3.225836076000178,4721,3024,0
3.2288755929998842,5121,0,0
3.2329204809998373,752,1168,1280
3.23582161000013,480,1840,0
3.239817136000056,8994,3728,0
3.242814416999863,0,2256,0
3.246813552000276,3472,1968,0
3.249841442000161,4209,160,0
3.253756944000088,720,2096,0
3.2568301000001156,0,1456,0
3.26076315399996,2800,1360,0
3.2638066580002487,2608,2400,0
3.267805492000207,3968,1008,0
3.270785165000234,4113,1568,0
3.273823413000173,0,1680,0
3.2777878550000423,640,6801,0
3.281120099999953,2208,1696,0
3.2850821550000546,1488,7169,0
3.2877570330001618,1824,3088,0
3.291973061000135,4449,3312,0
3.295123397000225,0,768,0
3.2980129259999558,0,1024,0
3.3019822189999104,5153,3264,0
3.3059595469999294,2176,1392,0
3.308935517000009,2832,3216,0
3.312964677999844,1376,896,224
3.3159644630000003,480,1024,0
3.319802584000172,2128,1952,0
3.323033384000155,576,1280,0
3.3271320769999875,3344,1584,0
3.3301424119999865,5377,1280,0
3.333940719000111,496,688,0
3.337024996999844,0,1520,0
3.340151242000047,2608,1840,0
3.34398563700006,2064,8049,0
3.3471586579998984,4961,2432,0
3.3512287160001506,6033,4385,0
3.3540513860002648,0,1280,0
3.358124342999872,0,1024,0
3.3611697040000763,3536,4913,0
3.3650148380002065,1888,1120,0
3.3682499269998516,4545,1024,0
3.3712980979998974,0,672,0
3.375178223000148,0,1232,0
3.378097904000242,736,432,0
3.3812834360001034,816,3328,0
3.3850494170001184,1088,3744,0
3.3883291199999803,1456,1136,0
3.3921215559998927,3360,1792,0
3.395138330000009,208,864,0
3.399057515000095,560,5921,0
3.4022525519999363,1632,1184,0
3.4062115149999954,3200,5377,0
3.409168783000041,2128,3424,0
3.4130884539999897,4241,2304,0
3.4161503929999526,0,768,0
3.419955415000004,3888,1216,0
3.423164290999921,1296,1952,0
3.427025212999979,3376,1904,0
3.4301790230001643,4865,1728,0
3.4339090399998895,640,6913,256
3.43699311499995,944,1296,0
3.4408952369999497,4465,4609,0
3.443898415000149,0,1312,0
3.447804607999842,3344,2048,0
3.450854468000216,2672,1040,0
3.453869835000205,0,848,0
3.4581139719998646,3216,2320,0
3.4620666939999865,3504,2000,0
3.465051204000247,2400,1440,0
3.4690939820002313,1392,1936,0
3.4721225439998307,2560,1232,0
3.474888569000086,0,1200,0
3.478904150999824,3872,2752,0
3.48212254200007,1072,512,0
3.486124133999965,2624,5393,0
3.4900511189998724,1616,1920,0
3.493086645999938,2896,2352,752
3.4971162840001853,448,1616,0
3.500107815999854,2304,1392,0
3.5038749280001866,736,2208,0
3.5068426679999902,3392,2160,0
3.5110554480002065,5569,1968,0
3.513918890000241,1024,1184,0
3.5180389100000866,0,1088,0
3.521098802999859,1744,1888,0
3.5248392290000083,1456,1648,0
3.528114989000187,3408,2544,0
3.532093444000111,976,1792,0
3.535104297000089,1536,2272,0
3.53832139799988,0,1936,0
3.5422069320002265,96,6193,0
3.5451081569999587,2560,912,0
3.549024521999854,1120,1184,0
3.5523067069998433,2368,1792,0
3.5561467349998566,0,1712,0
3.5592473060000884,2592,1552,0
3.5630032190001657,480,1168,0
3.5662348159999055,2912,1984,0
3.570142555000075,3440,1792,0
3.5731316209999022,1776,1200,0
3.5770802269998967,432,1568,0
3.5803038240001115,1616,3328,0
3.5839994789998855,160,1744,0
3.5871622230001776,4129,2304,0
3.591033701000015,4449,2304,0
3.594029546999991,0,1680,0
3.5972065609998936,208,1536,0
3.601242632999856,1616,5201,0
3.6040878389999307,656,1536,0
3.608231679000255,3840,5377,0
3.611224495999977,1312,1136,0
3.615062737000244,2224,2208,0
3.6183010730001115,224,464,0
3.6220657170001687,1840,4865,0
3.6253289579999546,2912,2096,0
3.6290598420000606,1280,5121,0
3.632153892000133,0,1120,0
3.6361069590002444,0,2544,0
3.6390842629998588,3248,2848,0
3.6430675629999314,1024,1040,0
3.6462628680001217,3184,2576,0
3.6500056830000176,2880,2304,0
3.6530016950000572,0,2256,0
3.6562503290001587,0,768,0
3.660175223999886,2576,4913,0
3.6630570040001658,208,2128,0
3.667066562999935,4257,1488,0
3.6703141560001313,4865,1600,0
3.6730809489999956,0,1584,0
3.6772457699998995,3120,2672,0
3.681014294999841,1984,1280,0
3.6840411650000533,768,2304,0
3.687919211999997,5713,2384,0
3.691116243000124,4721,2816,0
3.694075933000022,0,1216,0
3.698170164000203,544,1888,0
3.701155189000019,3664,256,0
3.705072274000031,1280,2656,0
3.708201205000023,3296,1104,0
3.7121108410001398,1344,1184,768
3.7152491729998474,0,2400,0
3.7188945570001124,144,768,0
3.721965005000129,3552,2288,0
3.7258832500001517,4064,3536,0
3.728874216999884,2288,1936,0
3.7327947759999915,752,752,0
3.7358802520002428,400,1616,0
3.739958308000041,1568,752,0
3.7431570710000415,2000,3040,0
3.7470308719998684,1792,2544,0
3.750054588000239,4305,1552,0
3.753956938000101,816,1328,368
3.7570332029999918,0,1680,0
3.7610166300000856,2112,1488,0
3.7639238219999243,992,2640,0
3.768052015000194,5121,2928,0
3.771031382000274,4529,2512,0
3.773991659999865,0,992,0
3.7780323259999022,768,1952,0
3.7810957920000874,3328,1504,0
3.785095002000162,1040,2784,0
3.7881214469998667,3760,1792,0
3.7920845449998524,1376,768,656
3.7948564849998547,256,1552,0
3.7988236290002533,0,3440,0
3.8018908300000476,2656,1872,0
3.8059999870001775,1792,2048,0
3.809160410000004,2448,1664,0
3.813185909999902,656,1280,1568
3.816204208000272,112,1392,0
3.8201284110000415,5537,2048,0
3.823307483000008,208,2224,0
3.8271259970001665,8274,4032,0
3.830987802999971,5425,1920,0
3.834090113000002,1584,1952,0
3.837330370000018,0,1200,0
3.84107585799984,944,1632,0
3.844083289000082,656,1392,0
3.8481920270000955,5121,2064,0
3.85112633000017,2816,2000,0
3.8552096050002547,0,752,640
3.8581638740001836,656,1392,0
3.8620397839999896,3104,1152,0
3.865033293000124,0,1264,0
3.8681947210002363,4865,2736,0
3.8723093009998593,2816,2992,976
3.8759640009998293,1232,672,0
3.879077855000105,2096,1360,0
3.8829572580002605,880,1648,0
3.8860288189998755,3184,1792,0
3.8901168030001827,3936,2304,0
3.893144078000205,544,2336,0
3.897079397000198,128,1072,0
3.9000538999998753,4609,1472,0
3.9039422030000424,48,1808,0
3.9071557719998964,6145,3056,0
3.911145558000044,4881,1520,0
3.914060327000243,192,1728,0
3.9172187660001327,624,624,0
3.92120359799992,2048,6145,0
3.9241165460002776,0,1168,0
3.9280731369999558,2192,2384,0
3.931295954000234,3760,1280,0
3.934203565000189,0,688,0
3.938001457000155,4913,3664,0
3.9421265830001175,1568,1824,0
3.945103238000229,1792,2128,0
3.9490693480001937,3104,1776,0
3.9522899570001755,2640,1808,0
3.955303151999942,0,640,0
3.9590807600002336,0,1024,0
3.9622180139999728,1232,2224,0
3.9661866460000965,768,1568,0
3.96907832099987,1568,1760,0
3.9730494149998776,1136,1776,0
3.976248159000079,0,1584,0
3.979105521999827,0,1120,0
3.983056494000266,48,1552,0
3.9862923420000698,3760,2752,0
3.9900862089998554,2320,1008,0
3.9932102470002064,1456,1584,0
3.996250519000114,0,1040,0
4.000127089000216,7937,3632,0
4.003899709000052,1312,1120,0
4.00700334000021,5649,2656,0
4.010854883999855,5377,2400,0
4.013958779999939,1520,2000,0
4.017813467999986,464,1312,0
4.020923185999891,3152,1792,0
4.0247979850000775,1136,864,0
4.027788755000074,3568,1552,0
4.032120040999871,2816,1968,0
4.035191208000015,0,1280,0
4.037883786999828,0,1168,0
4.042130245999942,2144,2160,0
4.044844325000213,544,1136,0
4.049114207000002,2784,1312,0
4.052077646000271,1056,2064,0
4.056030232000012,0,1328,0
4.059129559000212,3728,1712,0
4.0630942709999545,736,1696,0
4.066040638000231,3888,2048,0
4.070097197999985,2992,1760,0
4.073011097999824,1056,1840,0
4.076809540999875,416,1168,0
4.080102793000151,1824,3184,0
4.083872760999839,1120,2480,0
4.086986138000157,6577,2560,0
4.091134345000228,5441,2448,0
4.093925564000074,800,1760,0
4.097003056000176,0,1840,0
4.101170568000271,4561,2016,0
4.104977395999867,1312,1344,0
4.108041067000158,4737,2736,0
4.112056976000076,2224,1376,0
4.115117714000007,0,1952,0
4.118128243000228,0,1120,0
4.122021050000058,3664,1248,0
4.125129001999994,1792,912,0
4.1290448320000905,2368,800,0
4.132295794000129,1392,2304,0
4.136002556000221,656,768,0
4.139246773000195,2944,3056,0
4.142998114999955,1520,1904,0
4.1461689200000365,2320,2592,0
4.150193711000156,1792,1632,0
4.15312754200022,96,2000,0
4.156213020999985,240,400,0
4.160193809000248,768,6769,0
4.163200429999961,1792,3024,0
4.167275990000235,3872,5793,0
4.170391532999929,5313,2800,0
4.174066371000208,1072,4849,0
4.177146973000163,0,624,0
4.181213623000076,2144,1328,0
4.184093480000229,432,1616,0
4.18800116400007,2992,1792,0
4.1913081940001575,4593,2256,0
4.195048075000159,272,624,0
4.1982950900001015,2304,2608,0
4.202182355999867,2912,1424,0
4.205190111999855,1024,1504,0
4.209230585000114,2800,1024,0
4.2121189409999715,3216,2304,0
4.215956399999868,144,1968,0
4.219293318999917,304,2304,0
4.223064843999964,2304,2640,0
4.226169730000038,2640,2160,0
4.2300910320000185,1248,1488,0
4.233186437999848,928,2304,0
4.237053259000277,224,1280,0
4.240142840999852,1792,1456,0
4.243230176999987,0,832,0
4.247141137000199,3664,5281,0
4.250415741999859,4977,1552,0
4.2540464459998475,3392,2832,0
4.2572430109999,0,1280,0
4.261041874000057,1888,1312,0
4.263994628000091,592,1056,0
4.268109346000074,3792,2736,0
4.271324913000171,2240,1488,0
4.2749289710000085,0,6305,0
4.278147200000149,768,1776,0
4.281900317000236,3840,768,0
4.285039100000176,3024,1792,0
4.288876197000263,2464,1680,0
4.29215143600004,2208,2544,0
4.295875652000177,112,1376,0
4.2990643130001445,1568,1824,0
4.302873079000165,1968,1424,0
4.306254800000261,1712,2592,0
4.310027822999928,2192,1744,0
4.313034640999831,928,2000,0
4.315998087000025,0,576,0
4.319866130000264,800,6609,0
4.322937781999826,800,2128,0
4.3268444959999215,3328,3312,0
4.330032654000206,3072,1376,0
4.334066312000232,1280,2080,2256
4.3370862130000205,0,1072,0
4.341136788999847,1008,5409,0
4.34398056100008,1280,2304,0
4.348097173000042,5489,2800,0
4.3520679009998275,3312,2064,0
4.355149320000237,1808,2320,0
4.358156079999844,0,1232,0
4.361814126999889,2864,6225,0
4.365164134000224,1792,688,0
4.369135613000253,2416,6881,0
4.3720461430002615,2224,1280,0
4.376036181000018,4753,3328,0
4.379115732000173,0,928,0
4.382999667000149,752,1520,0
4.386031668000214,3424,2640,0
4.390062635000049,1888,2336,0
4.392981261999921,848,2048,0
4.396029485999861,48,1248,0
4.400122201000158,3648,2912,0
4.4031556919999275,0,1648,0
4.407149172000118,5009,2544,0
4.410327248000158,3344,2192,0
4.414014841000153,144,5841,1280
4.417956824000157,304,1328,0
4.421081240000149,3632,400,0
4.4251506040000095,1248,2544,0
4.428095961000054,4833,2560,0
4.43200643199998,3088,1632,0
4.435109626000212,784,1504,0
4.438899872000093,1120,1024,0
4.44199593500025,1872,1184,0
4.445928930000264,1504,1584,0
4.449285936000251,1456,1392,0
4.452980527999898,1184,1792,0
4.456124057000125,816,1616,0
4.460196479999922,2048,2048,0
4.463207623000017,0,2208,0
4.467185811000036,2944,2256,0
4.470328949999839,3408,2304,0
4.473971699000231,592,2064,0
4.4773054900001625,2352,2576,0
4.480258373000197,4016,768,0
4.48405349199993,3920,3504,0
4.488134555000215,1136,1568,0
4.491180976000123,5121,1760,0
4.495028489000106,336,1344,0
4.498266643000079,1936,3808,0
4.501993309000227,2992,1456,0
4.505320124000264,1024,2400,0
4.509200944999975,3616,4913,0
4.512218159999975,1680,1568,0
4.516176352000002,0,1712,0
4.519305559000259,2816,2976,0
4.522201189000043,1680,992,0
4.526295007000044,4161,3312,0
4.530056863000027,640,1024,0
4.533113995999884,3136,2464,128
4.53708282100024,768,1792,0
4.540183819000049,1856,2016,0
4.543999775999964,96,1680,0
4.547132662999957,5313,2816,0
4.551055632000043,4353,1632,0
4.554012306000004,0,1072,112
4.557185921999917,0,832,0
4.56104392799989,864,2048,0
4.564129697000226,1328,1984,0
4.5682108010000775,5409,3152,0
4.5711772670001665,2672,1440,0
4.575212777000161,0,576,1280
4.578177363000123,0,1104,0
4.581954532000054,3888,1216,0
4.585211624999829,1168,2064,0
4.5889653439999165,4641,672,0
4.5921791159998975,3888,2512,0
4.595380205999845,672,560,0
4.598981443999946,4689,3600,0
4.602822263000235,2784,1168,0
4.6059227020000435,3232,3232,0
4.609841627000151,2048,1792,0
4.6128934470002605,2048,2048,0
4.615940334000243,64,544,0
4.6200255909998305,5345,5121,0
4.623056681999969,432,2112,0
4.627066622000257,3520,6481,0
4.630119143000229,5281,2608,0
4.6339758359999905,4321,3808,0
4.636965845999839,0,1776,0
4.641079020000234,1024,1440,0
4.644128803000058,256,784,0
4.648020235999866,2288,768,0
4.651180735000253,4785,3024,0
4.65507500700005,464,432,0
4.657996678000018,1440,1648,0
4.662109958000201,2816,1264,0
4.665135822000138,464,1760,0
4.668957352000234,3424,1744,0
4.671966282000085,3072,2400,0
4.675029135999921,0,1456,0
4.67904561000023,1536,3488,0
4.6821573339998395,2304,1024,0
4.686171681999895,4881,2912,0
4.689373296000213,1488,368,0
4.693135537000217,3584,2464,240
4.69704370799991,256,464,0
4.7001498140002695,4353,2032,0
4.703352540000196,0,1552,0
4.7071215900000425,3840,7937,0
4.710404257999926,3792,2976,0
4.714046047000011,1888,4785,0
4.717953956000201,1840,1456,0
4.721274235000237,3120,1712,0
4.7241527529999985,256,1696,0
4.728185276000204,8306,4353,0
4.732161419000022,4209,2784,0
4.735292634999951,2240,2000,0
4.738317088000258,0,1024,0
4.74210660100016,2256,5905,0
4.7451531050000995,368,768,0
4.749177914000029,5681,2064,0
4.752318079999895,2288,1536,0
4.756162699000015,0,0,480
4.759284001000196,1024,2800,0
4.763091490000079,1536,4209,0
4.766170203999991,2816,1824,0
4.770266558000003,3328,2384,0
4.773165922999851,1776,1824,0
4.776377597000192,0,1360,0
4.780109809999885,3072,2224,0
4.783288714000264,704,928,0
4.787489760999961,3232,6113,0
4.791307419000077,5345,2144,0
4.794067765999898,5601,3632,288
4.797917560999849,32,1408,0
4.801124959999925,3104,1264,0
4.804948284000147,1728,1232,0
4.808021120999911,4913,1792,0
4.811951309000051,3664,2176,0
4.815047480999965,704,1648,0
4.818953024000166,336,1024,0
4.821943420000025,4609,2992,0
4.825873727000271,1040,1552,0
4.828867890999845,1296,1440,0
4.8327961919999325,1280,1472,0
4.835852094000074,0,1552,0
4.839791506999973,1632,1248,0
4.842822413000249,4881,2400,0
4.846800111999983,2672,1824,0
4.849794211000244,3744,1216,0
4.853793920000044,1328,1280,0
4.856816867999896,560,1920,0
4.860779846000241,2976,1104,0
4.863811165000243,1088,960,0
4.867793465999966,6513,1792,0
4.870816740000009,3392,2048,0
4.8747797579999315,864,960,0
4.877782054999898,192,1600,0
4.880835208000008,2304,768,0
4.884807442000238,4145,3504,0
4.888778882000224,4177,2304,0
4.891812417999972,3216,2304,0
4.894805743000234,0,256,0
4.89883638099991,0,1440,0
4.9018880879998505,2800,1840,0
4.905837116999919,2048,2224,0
4.9088655320001635,3728,1632,0
4.9128481950001515,1952,2464,0
4.91580854699987,928,1104,0
4.920448078999925,624,1808,0
4.922869642000023,2128,2304,0
4.926810108000154,2736,2304,0
4.929861456000253,3040,2720,0
4.934022959000231,1376,1712,0
4.9371241899998495,0,992,0
4.940015911000046,2816,912,0
4.943995051000002,0,6353,0
4.947152200999881,2048,1872,0
4.951128981000238,5121,2736,0
4.953965272999994,416,1024,0
4.958043220000036,224,1296,0
4.961128680000002,3616,1888,0
4.965027477000149,256,1296,0
4.968041154000275,3408,1792,0
4.972115416000179,2416,1456,0
4.975126449000072,0,1168,0
4.977988400999948,560,976,0
4.982144522999988,624,1328,0
4.985200687000088,1520,1856,0
4.989052294999965,4097,1472,0
4.9921996120001495,2272,2432,0
4.996208948999993,0,3824,0
4.999156903999847,0,2480,0
5.002199763000135,880,1120,0
5.006297306999841,2080,4977,0
5.0092521229998965,1632,1520,0
5.013293915999839,4769,3744,0
5.017086384999857,1456,1440,0
5.02019071299992,3392,1792,0
5.024009000000206,496,1280,0
5.0273455589999685,5809,2640,0
5.031237138000051,2832,1792,0
5.0341767370000525,1504,1488,0
5.038087985999937,160,1440,0
5.041168851999828,4721,2128,0
5.04504450200011,1040,1024,0
5.048142124000151,3696,1936,0
5.05208585399987,2496,1248,0
5.05534945699992,960,512,0
5.0582500089999485,768,848,0
5.062078870000278,6945,3840,0
5.066187946999889,1616,1616,0
5.0691327949998595,2752,1840,0
5.073099673999877,1360,1552,0
5.076282929000172,336,1376,0
5.079983615999936,2496,1520,0
5.0832941789999495,2880,2304,0
5.087096668999948,2816,2528,0
5.090360035000231,1424,1488,0
5.094084053000188,2064,1312,0
5.0971501730000455,48,784,0
5.101168368999879,2192,1584,0
5.104113447000145,1360,1696,0
5.108048223999958,4273,1488,0
5.11114012500002,4545,2224,0
5.114188026000193,0,1648,0
5.118115873000079,0,4257,0
5.121156584999881,2608,2336,0
5.1252385399998275,176,2224,0
5.128156476000186,4401,2544,0
5.132238368999879,3728,2352,0
5.135349196999869,160,1104,0
5.139005816000008,560,2096,0
5.1422113329999775,2352,1712,0
5.146076448000258,1472,2112,0
5.149144910999894,2144,2064,0
5.153057258999979,1776,1792,0
5.156127520000155,0,1136,0
5.160019135999846,1584,816,0
5.163016235000214,3248,2784,0
5.166929197000172,2992,2096,0
5.169945552000172,2816,1840,0
5.172948473999895,0,1584,0
5.176897338999879,0,5217,0
5.179917071000091,3808,1856,0
5.18392626800005,176,1264,0
5.187041954000051,3840,2304,0
5.191085740999824,4369,2752,0
5.193940935000228,0,1136,0
5.197124225000152,688,768,0
5.201193193000108,1344,4913,0
5.203987450000113,336,1520,0
5.208206971999971,5249,5601,0
5.210908060999827,4048,2256,0
5.215160876000027,4497,2736,0
5.218082006000259,0,864,0
5.2220099900000605,2816,2560,0
5.225176305999867,608,2080,0
5.229149431000224,3504,1232,0
5.23218626400012,2352,2144,0
5.236150007000106,0,1328,0
5.239159844999904,3408,2016,0
5.243009026999971,992,2288,0
5.246255013999871,4353,2288,0
5.250171202000274,2304,1392,0
5.2531294479999815,2256,2576,0
5.257048333000057,144,1120,0
5.260103284000252,1904,1472,0
5.263315085000158,0,1744,0
5.267125210999893,2880,6993,0
5.270177205999971,4417,1744,0
5.274088883999866,2240,4129,1344
5.278146169000138,1200,192,0
5.281193902000268,3600,592,0
5.285237240000242,1232,2112,0
5.288357828000244,4945,2160,0
5.292111216000194,2544,2208,0
5.2950897270002315,0,1792,0
5.298280591000093,400,2016,0
5.302194053000221,4000,2864,0
5.3061970690000635,1856,1280,0
5.309314005000033,3728,2096,0
5.3131337340000755,1520,1952,0
5.316046417000052,864,848,0
5.31926956999996,896,2304,0
5.323197229000016,1168,4865,0
5.327061328000127,2064,1904,0
5.3303812829999515,3344,3568,0
5.334053352999945,672,784,784
5.337186909000138,1296,1648,0
5.341079323000031,1920,1888,0
5.344057054000132,1952,1584,0
5.348224805999962,4417,1760,0
5.3512476040000365,6161,1600,0
5.355285478000042,560,1968,1952
5.35835785900008,0,1456,0
5.362091079000038,3744,976,0
5.3651801949999935,1120,1168,0
5.369288688999859,3296,2816,0
5.372214708000229,1488,2304,0
5.376277910000226,0,2544,1120
5.37938231399994,784,1280,0
5.383057175999966,464,976,0
5.386289538000256,2816,688,0
5.390214057999856,2512,528,0
5.393068378999942,1280,2064,0
5.396376762000273,0,496,0
5.400320195999939,1344,1072,0
5.403263036000226,1792,2096,0
5.407135254999957,4193,1792,0
5.4104197400001794,3088,2048,0
5.414115776000017,4961,3888,0
5.417205977999856,128,1072,0
5.421128681000027,96,4769,0
5.424154111000007,6833,1792,80
5.428177412999958,416,5889,0
5.431193805000021,6081,1952,0
5.435060218000217,1232,5745,448
5.438133325999843,0,1056,0
5.442039330000171,0,4977,0
5.445035649000147,2816,0,0
5.44810616399991,2656,1360,0
5.452111894000154,6145,3840,0
5.455221477000123,3200,464,0
5.4591297060001125,3440,2128,0
5.462852094000027,7473,1696,0
5.465941755000131,2064,2864,0
5.469848254000226,7569,736,0
5.472877963999963,14707,2544,0
5.475897910000185,240,368,0
5.479981035000037,3440,1584,0
5.483189994999975,768,1280,0
5.487062309000066,4705,4145,0
5.49016848600013,784,1792,0
5.49394974300003,5585,2464,0
5.497099546999834,4337,688,0
5.500978742999905,32840,2656,0
5.505125538999891,10786,3312,0
5.508165239999926,3072,2384,0
5.512052997999945,5345,944,0
5.515096699999958,11522,1248,0
5.519059384000229,18468,1472,0
5.523019002000183,26950,1888,0
5.526100121000127,5553,3056,0
5.529964405000101,22437,880,0
5.533217395000065,6625,1184,2816
5.537172793000082,24485,2864,0
5.5412160900000345,14371,6705,0
5.544140494000203,1072,1936,0
5.548058935999961,0,1280,432
5.551201184000092,768,3232,3696
5.555301741000221,1888,2208,0
5.558338932999959,4433,848,0
5.562044346000221,0,1552,0
5.5653228310002305,272,784,0
5.569091291999939,8962,1232,0
5.572257334999904,5889,3152,0
5.57623493500023,12595,1024,0
5.579214380999929,11602,1792,0
5.583101996000096,1376,2880,0
5.586388504999832,6209,2112,0
5.590107056999841,2608,7937,0
5.594044787000257,40057,0,1792
5.597178091999922,12595,1040,0
5.601246174000153,3696,800,0
5.604234355000244,4785,2560,4865
5.608152961000087,2656,5713,0
5.612222126000233,2576,992,2816
5.615296284000124,9970,1040,4353
5.619192283999837,14115,6737,0
5.623201621000135,11538,4417,0
5.626263608000045,1824,784,2032
5.630128108000008,2128,4513,0
5.634076808999907,4929,1952,2160
5.6373549390000335,3248,1552,0
5.641291904999889,5169,2464,0
5.6443159129999,7089,1024,0
5.648165181999957,15475,0,0
5.651213017999908,4353,1392,0
5.654980954000166,1392,0,0
5.658354038000198,1520,3856,0
5.66198628400025,9618,1248,0
5.665310282000064,2464,2416,0
5.669095936999838,13763,992,0
5.672319577000053,27942,1680,0
5.67617349000011,20436,0,0
5.67921011999988,9986,1456,0
5.683253650000097,17668,5393,0
5.686268837000171,768,1120,768
5.690411187999871,816,11458,7937
5.694173792000129,7777,5297,2416
5.697301660999983,0,368,2752
5.701342625000052,3312,2688,0
5.705164617000264,6385,1104,1872
5.708393019000141,23813,5297,0
5.71235438199983,17332,3152,240
5.716312150000249,0,2384,2256
5.719312675999845,768,864,0
5.723099967000053,9218,1360,0
5.726253038999857,3040,624,3072
5.730053411999961,22213,4529,0
5.733926903999873,1712,2160,0
5.7371392650002235,2080,1168,928
5.741036814999916,13075,2592,0
5.744174265999845,13923,7073,0
5.7480730370002675,7729,3744,0
5.751988282000184,20260,1184,0
5.755069659000128,6497,784,0
5.758931467999901,6193,6433,608
5.762872206999873,9586,1712,2128
5.7658919479999895,3632,7601,0
5.769854297000165,1280,3600,0
5.773015612000108,1952,3728,1904
5.7770507850000286,3680,9522,0
5.780206398000246,6561,944,0
5.78389074200004,2768,12851,0
5.788176195000233,2032,1616,11522
5.792151038000156,19204,7633,2560
5.795136708999962,7185,1328,0
5.799104002000149,8674,2352,0
5.8028565380000146,42266,4177,0
5.806135161999919,15091,1104,1280
5.810011295000095,12034,3904,0
5.813880788999995,9394,1568,0
5.816986453000027,6001,784,0
5.821120090000022,336,12499,0
5.824078594000184,3744,1376,0
5.8280705259999195,6609,256,5121
5.832222515000012,1472,1312,256
5.835365140000249,13059,1632,0
5.839180516999932,3856,2160,5265
5.843275860000176,4385,4577,2304
5.84636738800009,4273,4273,0
5.850146191000022,7841,0,2352
5.853289639000195,5153,368,3040
5.857303733000208,1024,1440,624
5.861124106000261,7729,3760,0
5.864169110000148,2592,2816,544
5.8682256580000285,4641,10546,0
5.8721474220001255,26470,5409,0
5.875385619000099,4609,1056,0
5.879274411000097,5361,5201,0
5.883272053999917,39689,6417,10130
5.886204812999949,2912,18100,0
5.890392146000067,368,5169,0
5.893374185000084,8626,736,0
5.8972555189998275,17204,10274,0
5.901211683999918,19252,17188,0
5.904137283000182,0,1760,0
5.907372733000102,688,976,0
5.911037949000274,0,2160,0
5.914167074000034,3008,5377,0
5.9183058779999556,6465,1792,2672
5.921261720000075,3824,496,0
5.925144872000146,2304,4865,0
5.9283564209999895,4161,656,0
5.9322844439998335,1264,496,0
5.936277288999918,17652,688,1904
5.939228535999973,2576,2736,0
5.943138010999974,6145,2512,0
5.946285753000211,0,8754,9074
5.950089617000231,5089,4769,0
5.953224744000181,2864,3744,0
5.957075842999984,2816,4449,0
5.960319018000064,2976,14419,0
5.964140732000033,4321,9826,0
5.968235939999886,8946,2144,0
5.971326895999937,17380,9362,0
5.9752862469999855,0,15123,2416
5.9792896039998595,29751,20052,3792
5.982409984000242,33944,11442,0
5.986336792000202,5457,5553,0
5.990072878999854,10866,4064,0
5.993080935999842,1584,17732,0
5.997137042999839,5969,4817,112
6.000375915999939,8290,1280,0
6.004215137999836,2432,4353,4961
6.008331637000083,23269,1008,1024
6.012159996000264,6209,3664,6113
6.016165633000128,5313,2064,4577
6.019338967999829,880,5905,0
6.023115525999856,0,1648,5393
6.026232021999931,5969,144,8097
6.03018591099999,17348,3328,1744
6.0341375250000056,2528,2912,3424
6.037183897999967,0,0,0
6.041086345000167,6865,1840,0
6.045049954000206,2128,11058,1536
6.04815107200011,720,5889,0
6.051984999000069,1008,2992,0
6.054962748999969,9730,6833,0
6.058893248000004,2976,14547,0
6.0619437179998386,3888,1008,0
6.065921380999953,4000,1904,0
6.069157687999905,4321,6721,0
6.073068482000053,10066,7009,0
6.077071663999959,6561,7633,13011
6.080073637000169,3312,1440,0
6.08385300000009,5633,3008,0
6.087091007000254,8674,880,0
6.091120942000089,2064,768,0
6.093906574999892,19812,2048,0
6.098167175000071,1792,5361,0
6.1009922210000695,0,5361,0
6.105163242999879,784,2464,1472
6.108149404999949,8482,768,0
6.111959969000054,3584,5617,0
6.115920687000198,0,5377,11794
6.119138979000127,9986,17652,0
6.123001992999889,4177,656,0
6.126122269999996,10498,768,5377
6.13010468199991,7201,5873,1616
6.134148140999969,12723,4881,0
6.1372655270001815,10930,7857,0
6.1412950369999635,3680,2656,4209
6.145033837000028,6721,3616,0
6.148338371000136,304,6545,0
6.152277894000235,8402,1984,1040
6.15622376400006,1200,6769,208
6.160181739000109,23557,3120,8978
6.164108406000196,16644,19028,4016
6.16824141799998,22197,21253,2720
6.172092806999899,41690,22245,10770
6.175393800000165,9986,23893,5425
6.179320594000274,19492,1520,0
6.183165574000213,7249,4705,0
6.186375041000247,688,2400,0
6.19014321800023,16644,672,0
6.193383641999844,17828,6321,0
6.197075812000094,0,1424,0
6.200198344,3872,2224,0
6.2041114630001175,160,512,432
6.207223997000256,2928,1152,4000
6.211160500000005,5409,1776,272
6.215047782000056,752,5953,0
6.218348184000206,256,2624,1232
6.2213784949999535,0,320,0
6.225359260999994,1552,5105,2192
6.229312270000264,16,10258,1120
6.232401563000167,9074,4673,0
6.23620481900025,2832,2464,0
6.240201837999848,4000,3120,0
6.243276716999844,0,9554,0
6.247102839000036,9938,160,9810
6.250453005000054,14835,4000,1456
6.254205283999909,0,13059,18084
6.2582674220002446,16243,1808,0
6.261329310999827,7089,400,1216
6.265363946999969,24021,14787,0
6.269274633999885,5457,288,0
6.272385195999959,1744,5777,0
6.276154298000165,3024,2080,0
6.27931644399996,0,3296,0
6.282423452999865,432,2608,0
6.2862652280000475,3360,3376,3264
6.290136534999874,592,1936,0
6.29326511499994,48,1776,1200
6.297125849000167,1344,2192,0
6.300293408000016,176,528,0
6.304166066000107,416,2048,5729
6.308288474000165,5937,11730,2256
6.312286286000017,15187,9218,5281
6.31530209399989,0,2304,0
6.318263391000073,0,464,1552
6.322185754000202,14387,7169,464
6.3261144230000355,6385,7873,0
6.329182080999999,1824,640,0
6.333117291000235,1680,9426,0
6.33617410900024,2928,7937,0
6.340087367000251,352,5649,0
6.343210106000242,6609,8626,0
6.347096090999912,9826,944,0
6.35014686500017,0,8594,4353
6.353964812999948,336,1024,0
6.356981105000159,1888,2560,0
6.360936406999826,5921,7793,0
6.363959268000144,9362,4769,768
6.368170714999906,8338,6369,0
6.371190616000149,0,2144,0
6.375178605000201,12531,4193,0
6.378175071999976,0,688,0
6.381203034999999,0,592,0
6.385176072999911,4273,5649,1280
6.3881952520000596,9218,768,0
6.392097265999837,3536,1840,0
6.395181383999898,1184,768,0
6.399157646000276,2464,4689,0
6.402027769000142,2224,768,0
6.406212835000133,1968,7681,4209
6.4101930560000255,10162,6737,8882
6.414115261999996,23557,8434,0
6.417086004999874,0,448,0
6.42116526000018,34296,6305,0
6.4240666149999015,21109,4977,7569
6.428107037000245,7489,16436,0
6.432067067999924,9458,9234,0
6.4351830470000095,3312,992,8786
6.439101647999905,9218,9202,11010
6.443222820999836,5873,0,160
6.4463925830000335,7889,1920,8962
6.450366981000116,7217,3600,144
6.453184387999954,0,4625,0
6.457131854000181,5585,2416,0
6.460214494999946,0,6401,0
6.464166720999856,2224,2704,368
6.468128787999831,9746,32,4353
6.471196636000059,0,2000,0
6.474204054999973,0,8450,0
6.478134471999965,11378,4305,4129
6.481453486000191,0,9538,848
6.485313673999826,272,2256,0
6.488460120000127,5265,256,0
6.492345741999998,9202,15619,0
6.496210668999993,3696,11810,5089
6.499422046999825,1248,3952,0
6.503279550000116,0,8466,0
6.5063930720002645,3840,4913,0
6.51028861199984,7441,256,0
6.513407434999863,3280,5345,0
6.5164439660002245,9842,0,0
6.520452711999951,27638,4353,0
6.5241860000001,7921,6305,7121
6.528221558000041,29623,4401,7505
6.531416245999935,480,14771,0
6.535404744000061,20228,3328,12563
6.539332462999937,15363,0,3584
6.5423891089999415,1264,9426,0
6.546328216999882,8818,2992,0
6.549423185000251,6929,688,0
6.553289993999897,7425,11442,0
6.557145650000166,480,3680,8434
6.560451959000147,2816,3120,0
6.564107305000107,0,2320,0
6.567261424000208,8930,1360,0
6.571246268999857,4865,560,0
6.574213251999936,2048,1040,0
6.577329678999831,0,1280,0
6.5813527780001095,13987,4641,0
6.5852280170001904,4064,6401,0
6.588392029000261,10066,4080,0
6.592258783000034,31799,3696,4225
6.596240833000138,2400,9026,0
6.5992857139999614,10402,8161,0
6.603308190000007,0,11602,416
6.606372954000108,3696,5377,0
6.610185362000266,24854,0,0
6.61326634299985,14291,3168,0
6.617116096000245,0,2480,8450
6.620270249999976,1168,3360,0
6.624154324999836,224,13747,0
6.627334436000183,1776,864,0
6.631184888000007,9186,2080,1360
6.635073533000195,2192,10722,0
6.6390047400000185,4417,5889,1824
6.642132909999873,1200,16628,0
6.645192812000005,0,112,0
6.649018001000059,15795,352,0
6.652019879999898,6033,2272,0
6.655945641000017,0,4353,0
6.658911888000148,0,512,0
6.662068332000217,480,7281,0
6.666182790000221,9010,2464,3920
6.668954290999864,4145,0,0
6.673085395000271,0,5265,0
6.676180704000217,12691,6545,0
6.68011290000004,12050,7249,0
6.683110354999826,11922,624,0
6.687103927999942,17700,2304,0
6.690910578000057,3840,11426,0
6.693872646000273,26198,960,0
6.6981832430001305,2032,5665,6401
6.702047503999893,3568,288,4721
6.705185216000245,3200,528,1328
6.709164356000201,1888,2512,1952
6.7131756210001186,1712,11122,0
6.717169122000087,2816,2464,4977
6.720274784000139,400,9186,0
6.7240965420000975,5681,864,304
6.727318445000037,12210,8450,80
6.7314241280000715,10338,10146,512
6.7353446570000415,9554,2480,0
6.739313813000081,4529,6641,10418
6.742216281999845,0,768,0
6.745289937000052,1120,1264,0
6.749308595000002,5425,3088,0
6.753182830000242,10930,336,0
6.756309173999853,1760,1248,0
6.760271899000145,5345,7425,0
6.763365120999879,6753,3184,0
6.76717087499992,880,5857,0
6.770321805000094,11874,4401,0
6.774160623000171,5121,6145,0
6.777249815000232,4097,4097,0
6.78122641300024,11010,4257,688
6.785031064000123,7009,8145,0
6.788168955999936,6689,14771,256
6.792085964999842,6401,4097,0
6.795982327000274,11010,1104,0
6.799016922000192,1328,3808,0
6.802901854000083,5345,848,0
6.806154014000185,96,6657,0
6.809246390000226,8049,336,0
6.813126937000106,0,11810,0
6.81622309300019,3488,2480,0
6.820388095999988,2816,1680,3920
6.824263391999921,6353,3712,0
6.827255010000044,3328,3872,0
6.83133128999998,15571,9218,768
6.835224729999936,7521,1424,0
6.838281120999909,3728,688,0
6.841263306000201,1200,1024,0
6.845303058999889,2800,2160,0
6.849183134000214,7569,1936,0
6.852217799999835,11442,2224,0
6.856264378000105,7441,960,0
6.859403777999887,20853,608,3408
6.863159002999964,11778,9810,0
6.867174782999882,2240,688,8946
6.871116397000151,2864,8450,1792
6.87428737800019,13555,5217,1856
6.87839889299994,1072,9554,800
6.88233766500025,16644,3312,0
6.885437378000006,1728,880,2848
6.8893804479998835,5409,4113,6593
6.893240685999899,2064,9954,4753
6.897270917000242,10226,4097,5777
6.900511051000194,7937,8450,0
6.904361712000082,5921,4353,0
6.908282964000136,14323,5041,0
6.911246392000066,7425,2000,0
6.915189825000198,7905,9554,7585
6.919081494000238,18100,3344,0
6.922171099000025,16,3792,0
6.9261125080001875,8962,496,2048
6.930089597999995,16900,1120,3264
6.933210990000134,7361,3120,0
6.936252335000063,0,2160,0
6.940183826000066,0,14707,8450
6.944093187999897,12739,496,0
6.947098859000107,6289,10034,544
6.95105234499988,11138,1632,0
6.954050251999888,256,720,0
6.957972278999932,3168,8834,0
6.961220891000266,6689,1760,0
6.965225101000215,4865,7713,0
6.969202278000012,4305,4097,400
6.9721650460001,12963,4977,0
6.9752405079998425,0,528,0
6.979190223999922,2560,4000,0
6.9831081520001135,2480,7457,1728
6.986216979999881,0,272,0
6.990200218000155,2672,9010,3296
6.993157810999946,304,1424,0
6.997190136999961,2800,848,0
7.000241544999881,2736,8882,3408
7.004108981000172,6769,9138,0
7.007178226000178,352,528,848
7.011285585000223,1712,3536,0
7.015250303999892,1536,10034,7089
7.019205513000088,11938,7057,0
7.022262641999987,2128,3424,0
7.026217803000236,7425,608,3632
7.029267220999827,15267,656,0
7.033229944000141,15555,1616,0
7.036463316000209,5985,3328,0
7.040458259999923,6929,4577,752
7.044230270999833,8450,2112,3824
7.047301892000178,0,1856,0
7.051204003999828,22549,816,0
7.054247081000085,1120,1776,0
7.05830469600005,0,3840,0
7.06230423299985,27638,3536,10162
7.065397587000007,6177,5169,0
7.069253291000223,20212,6353,0
7.072175701000106,10098,2128,0
7.076143566000155,1616,5969,0
7.080127876000006,15779,4721,0
7.083231061999868,736,1696,0
7.086295077000159,0,2912,0
7.090403950000109,6177,10178,0
7.094114980000086,7169,24341,4913
7.097454237999955,0,672,1680
7.1011206369998945,9298,256,144
7.1040838929998245,0,2832,0
7.108301719999872,10018,4625,0
7.111220730000241,0,5281,0
7.115268297000057,3104,8738,0
7.118396061000112,4865,1248,0
7.122288230999857,7185,4032,0
7.125376638000034,1792,848,0
7.12834904500005,8450,400,0
7.1322242589999405,5793,3008,0
7.136271996000232,80,2048,1168
7.139248354999836,3216,1584,0
7.143308113999865,512,4721,0
7.146186267999838,0,6065,0
7.149403421999978,3616,192,0
7.153258150000056,4337,4305,2960
7.15644099300016,0,7265,0
7.160145529000147,1824,2320,0
7.164052863000052,16,5505,1024
7.167340697999862,12531,3328,0
7.171185768000214,10706,704,0
7.174201783000171,6545,320,0
7.178132355999878,2288,4257,0
7.1813993050000136,14339,1312,0
7.1852613780001775,0,3472,0
7.188291712000137,3792,5873,0
7.192310153000108,6241,3488,0
7.196237421000205,3360,3616,6481
7.199387012999978,18644,11746,0
7.203187347000039,9986,2304,0
7.207107529000041,1792,2448,2992
7.210215843000242,8786,3584,0
7.21413753600018,9218,1920,2096
7.217209612000261,1136,688,0
7.221064563000255,0,5425,0
7.224192435000077,4129,1392,96
7.228173382000023,6017,7969,3408
7.231188512000244,0,4016,0
7.235152821000156,6241,672,4273
7.239042793999943,2768,1024,0
7.242055683000217,1248,1600,0
7.245946536000247,224,2048,0
7.249010637000083,5121,7729,0
7.251976801000183,16,2736,0
7.255994613999974,6385,10002,2096
7.260094459999891,0,160,1200
7.263929703000031,7425,1776,320
7.267117464999956,12403,28518,1088
7.271203686000263,9474,12739,0
7.275117540999872,2272,784,3168
7.278169744000024,14083,8498,0
7.282195136000155,17412,3456,18612
7.28619003599988,0,9474,0
7.288985121000223,3792,7009,1120
7.292986576000203,2192,4097,0
7.297031488999892,3296,13571,0
7.300244287000169,5681,4401,944
7.304096329999993,304,4113,0
7.3071491670002615,3392,304,0
7.311123683000005,3328,6513,0
7.314227304000269,14099,2464,0
7.318168600000263,416,5809,0
7.322296953000205,2816,12114,320
7.325362169000073,11266,528,0
7.329314793999856,5057,4145,2400
7.332434838000154,784,5937,0
7.3363610430001245,12034,3920,0
7.340215694000108,0,1520,1792
7.343286234000061,6513,1792,1984
7.34718196599988,3360,5969,0
7.350447829000132,6705,816,0
7.354260280999824,5457,10754,3152
7.35831738700017,0,4305,4048
7.36121990599986,1792,2224,0
7.365351972000099,768,9746,1792
7.368445265999981,496,9330,0
7.372340495000117,10098,4865,0
7.376182293000056,0,22229,4353
7.379459439000129,16131,1712,0
7.383393510000133,13059,2080,3840
7.387213604999943,14739,2816,5377
7.391257720999874,13683,4785,0
7.394300103000205,19252,1392,928
7.398423542000273,8450,1888,8546
7.40232489500022,19812,5409,0
7.406296904000101,14819,4609,3840
7.410066655000264,17316,1136,2304
7.4134122609998485,3280,6577,3536
7.417305922000196,17748,16660,768
7.421249722000084,1888,11762,1488
7.425200202000269,272,2320,4961
7.428246862999913,0,2608,0
7.432323416000145,4000,3216,0
7.435462609999831,560,4689,6641
7.439123818000098,2320,4113,0
7.442222641000171,784,4353,0
7.446377579,4705,3584,2416
7.450320793000174,176,7073,0
7.453202927999882,0,5793,0
7.457119651000085,3840,1856,0
7.460442343000068,2096,2016,0
7.464287972999955,7825,5377,960
7.467383573999996,4113,320,0
7.471210588999838,256,1136,3408
7.475105358999826,992,8081,3312
7.478346014000181,12467,2144,0
7.48235017900015,1744,8978,3472
7.4863115070002095,1600,3120,272
7.489370674999918,0,2224,0
7.493080371999895,9714,4881,0
7.496432628000093,3648,8866,1296
7.500327071999891,80,880,0
7.503412560000015,2352,5377,3600
7.507242000000133,3296,2288,4113
7.511093309999978,176,7153,0
7.514201589000095,9186,880,0
7.518082686000071,32,2768,2160
7.521180162999826,0,4577,0
7.524237225999968,304,1392,0
7.528166289000183,4353,9202,0
7.53213315999983,9586,1536,3184
7.535191149000184,0,400,1952
7.539108812999984,640,11010,0
7.542060577000029,0,5969,0
7.545991633000085,0,2816,1936
7.549057739000091,23829,1232,720
7.552975951000008,0,6177,272
7.557068742999945,10674,976,2816
7.560022964999916,1184,3328,0
7.563947666999866,624,3024,0
7.567144037000162,11090,4721,0
7.571197832000053,14595,224,0
7.57522053699995,3872,9746,8754
7.57815698200011,1616,2320,0
7.5821295310001915,8113,3936,624
7.585186336999868,256,560,0
7.589062663000277,0,1776,5889
7.593046187000255,6929,8930,5121
7.596239987999979,1824,19668,0
7.600176480999835,1200,1024,0
7.603115174999857,0,1312,0
7.607205296999837,8930,560,1744
7.610140616000081,5937,448,0
7.614043505000154,336,9298,0
7.617286250000234,1072,4353,0
7.621169519999967,2416,2624,4353
7.625121291000141,12210,4145,4369
7.628185728000062,7313,2784,0
7.632207362999907,2208,4673,9394
7.636288590000277,10258,224,0
7.639428987999963,0,1360,0
7.64306660200009,17012,1792,0
7.646448512999996,944,11298,1504
7.650269336999827,9650,8402,0
7.654239712000162,4353,12130,2512
7.657333930000277,11954,7729,0
7.661246234999908,784,8161,2704
7.665233794999949,176,13027,2640
7.668490249000115,26550,6705,0
7.672425149999981,2304,3824,8962
7.677081979999912,21109,14403,6193
7.680100338000102,2640,6257,2208
7.683946920999915,1712,1360,1024
7.686964469000031,0,15731,3264
7.690925792000144,3040,6353,0
7.69493574299986,768,3856,2592
7.697958373999882,4561,2112,0
7.701952139000241,1040,2768,1024
7.705911138999909,2256,1280,0
7.708960552999997,15619,784,4097
7.712977710999894,14595,5089,3248
7.716948427000261,9906,5473,0
7.72090622199994,7793,1568,2736
7.723980707999999,8898,2352,1552
7.727921505000268,144,7201,3600
7.731953327000156,5169,768,1024
7.7349797719998605,5265,3248,0
7.738947570000164,2416,7937,0
7.742946376999953,3184,13315,6257
7.745951009000237,0,8962,5905
7.749925696999981,13987,25350,0
7.753946590999931,2800,1680,0
7.7579122450001705,15123,10418,10498
7.760895669000092,20132,464,0
7.76487906300008,224,1536,0
7.767959808999876,304,1568,0
7.771969638999963,10674,6049,1840
7.775880233999942,0,14787,1424
7.778933376000168,2864,1440,0
7.783207605999905,1824,512,0
7.786261978999846,8466,1520,5809
7.790199908999966,0,3328,256
7.7932290130002,0,1120,0
7.796957841000221,1280,2064,0
7.800246675999915,1792,4849,3968
7.80395487900023,272,6209,0
7.807009287000255,3760,1296,0
7.810991622000074,2960,19924,0
7.814021977000266,0,624,0
7.817044489000182,0,3328,0
7.821008038999935,9058,7537,0
7.825259309000103,0,11506,20212
7.829241745000218,14723,17828,10754
7.833223405999888,7697,6961,2096
7.836235571000088,800,736,0
7.839266738999868,2368,2048,0
7.843041164000169,25350,2896,0
7.847030934000031,2864,1792,6049
7.851068521999878,10130,352,1280
7.85411923699985,2304,2064,0
7.8572286029998395,0,2160,0
7.8612930409999535,1760,8177,112
7.865281634999974,3840,768,0
7.86844400200016,0,5153,4097
7.872216074999869,1232,10498,0
7.8754621080001925,0,384,3776
7.879172617000222,0,1040,0
7.882452784000179,2400,2064,5473
7.886371628000234,4657,4545,0
7.889298878999853,8450,1584,0
7.8932043650002015,8113,4321,624
7.897239035999974,3824,16131,160
7.901241612999911,4145,25414,7761
7.904386028999852,7841,288,0
7.908191838000221,1760,1392,0
7.912295143999927,11378,3072,1888
7.915297471000031,4449,6401,0
7.9184764940000605,0,464,0
7.922456152999985,18068,4305,464
7.9263051670000095,4129,12323,7089
7.930430439000247,688,9314,2720
7.934169062999899,3936,5857,3824
7.9372961889998805,7649,3408,0
7.941375366000102,2704,2544,2048
7.944361432000278,0,1568,336
7.948430004999864,14179,4097,2272
7.952374739999868,12659,2624,0
7.955490505999933,7281,1584,0
7.9594757069999105,10642,15219,1600
7.963252362000276,15987,4721,0
7.967219121000198,5425,7025,11874
7.970526240000254,1088,5681,0
7.974189322000257,0,18164,928
7.9783897719999,31607,17412,4337
7.982163561000107,13059,7777,0
7.986274298999888,33704,26886,14083
7.989358990000255,2672,38105,9890
7.993382091000058,4657,28679,16948
7.997328821999872,21061,6865,32
8.001183106000099,0,672,9602
8.005273855000269,11346,6913,16820
8.008374299000025,65535,8049,12210
8.012382094000259,34568,10530,5377
8.016467466999984,41818,4241,34712
8.020414858000095,65535,15523,20485
8.02418389100012,18084,1440,0
8.028160625000055,20404,4353,17668
8.03220475299986,28534,12451,13875
8.03630156700001,14227,15843,9330
8.040314698000202,15027,5137,12723
8.044341931999952,8065,19428,0
8.047334584000055,0,2304,5457
8.051247498000066,10674,288,0
8.055168455000057,1824,3552,5457
8.058423375000075,272,3920,0
8.062236852999831,12611,3616,64
8.066334662999907,2368,10834,6657
8.069435867000266,4817,2016,0
8.073237445999894,19204,21717,3856
8.07704501299986,0,272,5121
8.0800312639999,352,3584,8354
8.084003445000235,208,15827,4641
8.088005866000003,7489,3184,128
8.090997881000021,14435,9010,0
8.095294107999962,240,16371,12339
8.099287110000205,15779,9890,352
8.103260757000044,1792,30183,0
8.106272364000233,6305,1696,7201
8.109952795000027,7169,8514,3200
8.114054641000166,18692,20773,11618
8.118246053999883,0,31335,0
8.121237695000218,2560,1344,256
8.125253736000104,0,2768,0
8.12826057600023,1568,2848,0
8.132175957000072,16019,3904,0
8.135303843000202,0,6513,0
8.138364325000111,0,15459,0
8.142160676000003,8482,12146,0
8.146414926000034,1136,8722,4241
8.149480332000167,14899,16,0
8.153303102999871,1952,2848,5025
8.157422236999992,19828,13907,0
8.160334230999979,4273,21957,0
8.164445715000056,10850,2400,4273
8.16840871400018,7729,18980,0
8.172193501000038,4865,288,976
8.175336501999936,6945,19636,0
8.17929511200009,5281,256,5649
8.183314552999946,0,12547,6225
8.187238288000117,11954,14083,1280
8.19032476800021,2528,976,4417
8.194374467000216,13811,3600,0
8.198257677000129,10258,22261,3840
8.202390253999965,14531,38185,10098
8.205493595000007,1024,2320,0
8.209326512000189,12355,3840,3296
8.213374270000259,0,6689,592
8.216438685999947,2816,1328,0
8.220273194000129,13267,1792,0
8.223618372000146,0,10802,0
8.227151603000038,1072,5281,0
8.231059136000113,10242,5521,176
8.234425650000048,2480,3840,0
8.238390030000119,3920,3200,3472
8.241377348000242,16964,576,0
8.245404936999876,5393,7697,0
8.248357583000143,96,6113,0
8.25242775300012,2576,4625,144
8.255467336000038,880,256,0
8.259427760000108,1280,3792,5137
8.262343336999947,0,0,0
8.26638439899989,5761,9522,0
8.270332717000201,8081,3152,5649
8.273446259000139,2016,1856,0
8.276500756000132,0,10354,0
8.280288029000076,13283,7729,0
8.284345467000094,14355,2064,0
8.287378591000106,8113,4673,0
8.291268629000115,4673,9730,1904
8.29528026800017,3488,5041,0
8.298310369999854,1328,5393,0
8.302237204999983,2128,1616,272
8.30535818899989,2608,5665,0
8.309411443000045,12547,3248,0
8.313311959000202,1280,2160,0
8.316297617000146,256,1504,0
8.319387700999869,5377,1392,0
8.323447473000215,8594,3328,496
8.327306613000019,17844,3600,1504
8.331375231000038,37369,8418,0
8.334478160999879,19428,1072,0
8.338210593999975,18068,768,0
8.342364532999909,12691,1648,3264
8.34546321200014,2816,6225,0
8.349175890999959,6049,6257,0
8.352207562999865,17156,560,0
8.356161015999987,4209,5697,0
8.359405671999866,34936,768,0
8.363219710000067,8530,15219,0
8.367125230000056,14899,480,0
8.370308687000033,1584,1376,0
8.374210802000107,15475,3088,0
8.377181289999953,3120,0,0
8.380145444999926,736,464,0
8.384051645,4529,4897,0
8.388002212000174,480,8450,304
8.391064616000222,40601,4497,0
8.395273466000162,7585,4705,0
8.398275780999938,9906,896,6209
8.402227421000134,10098,5377,7633
8.406252761999895,32183,752,0
8.40921076099994,2416,1280,0
8.41322056099989,7425,4945,0
8.417114789000152,27926,2576,0
8.420142405000206,28246,1344,0
8.424052700000175,19540,1824,1296
8.428224663000037,6129,10242,0
8.43134348500007,7281,3584,0
8.435250565999922,19812,16,0
8.438282466000146,448,5969,1072
8.442298155000117,480,1296,0
8.445312176000243,496,2128,0
8.44927221700027,13619,1040,1280
8.453221374999885,29239,960,0
8.456383188000018,0,6417,160
8.460199189999912,14563,3216,6721
8.464346383000247,10786,2288,0
8.467352164000204,6673,7137,1472
8.471295674999965,10722,6433,0
8.475317160000031,12291,3760,0
8.47829076700009,0,1056,0
8.482143394000104,23413,2448,0
8.485436516999926,7569,3056,0
8.489151011000104,13427,976,0
8.492215684000257,3536,7169,0
8.496339934999924,0,3424,512
8.499434195000049,5377,5105,0
8.503264392999881,2448,1952,0
8.50642873300012,4785,7841,1792
8.510208953000074,8145,4097,0
8.513477929000146,336,544,0
8.51724251099995,768,5649,0
8.520457154000269,6161,3472,0
8.524193046000164,1248,9730,0
8.527296358000058,0,1648,0
8.531203072000153,0,1648,1632
8.534464372999992,2656,1568,0
8.53840649499989,10002,1872,0
8.541469526000128,7025,1760,0
8.545408784999836,1392,6785,0
8.549299043000246,1024,2160,0
8.552396448999843,3504,3440,0
8.556307268000182,5137,3472,0
8.559286998000061,1712,1168,304
8.563193643999966,11426,240,0
8.567189342999882,11010,7953,256
8.570317197999884,7425,6737,0
8.574348637000185,0,4193,3776
8.577320496000084,1488,1120,2400
8.581426222000118,9890,3280,0
8.584456226999919,0,1808,0
8.588445924000098,13379,1744,2016
8.592362540000067,14595,960,0
8.595461486000204,768,3600,3904
8.599370849000024,4609,4689,0
8.6024945019999,1952,464,0
8.606400068999847,9458,6241,0
8.610104968000087,12194,2064,0
8.613263089000156,7921,1952,0
8.617255174000093,5969,2352,1552
8.620498200999918,0,1072,0
8.624324492000142,2304,2208,0
8.6272979270002,8370,2496,0
8.631372772999839,3488,1520,0
8.634350109000025,14803,1392,0
8.638400914000158,9218,4881,0
8.641351696000129,17204,800,0
8.645137850000083,7105,0,0
8.64836956299996,4961,1488,0
8.652195547000247,5393,5281,0
8.656055424999977,7089,1648,1232
8.659194935999949,11410,2128,0
8.663033281000025,1328,2608,0
8.666065184000217,0,2048,0
8.669972269000027,3632,3136,0
8.67302455700019,6913,3504,0
8.67698673699988,1584,880,0
8.680161679999856,13331,2960,0
8.68404443899999,4801,3664,0
8.687279776000196,10290,2304,0
8.691236697000022,35512,6913,0
8.695271649000006,29543,1360,1888
8.698338968999906,24565,768,0
8.70224564199998,9778,4353,0
8.705355470000086,4833,1792,0
8.709220087000176,6737,2832,0
8.713297651000175,13299,720,256
8.716175327000201,0,2352,0
8.720300574000248,21909,2544,0
8.723257415000262,64,1872,0
8.727146202999847,12515,1968,0
8.73030542100014,1168,2048,0
8.73422635299994,1296,1936,0
8.737192492999839,28422,1264,0
8.741325061000225,11202,1008,0
8.744307734999893,3328,4305,0
8.748335795000003,7729,4097,0
8.752167915999962,2448,1296,0
8.755421507999927,1600,1456,736
8.759322514999894,0,2368,0
8.762453182000172,3024,3072,0
8.766235729000073,160,1680,0
8.769449387999884,4209,3552,0
8.773329932000252,8274,1024,0
8.776273636000042,4241,304,0
8.779486091999843,0,944,0
8.783401406999928,2896,2096,0
8.78645067000025,0,1792,0
8.79036999400023,2480,1808,0
8.793229342999894,880,1760,0
8.79653383799996,272,880,0
8.800458867000089,672,7153,0
8.803344063000168,2816,1392,0
8.807342190999861,256,1664,240
8.81035411699986,704,1168,0
8.814426817999902,192,5441,0
8.817382960000032,1072,1184,0
8.821456786999988,3568,3888,0
8.82447587500019,0,1184,0
8.828412836000098,1488,3568,0
8.83147346099986,3680,2208,0
8.835449966999931,3072,1712,432
8.838514436999958,0,1376,0
8.842405637999946,30983,1456,0
8.845492782999827,0,1952,0
8.848514595999859,0,1040,0
8.852447730000222,4705,2576,0
8.856359628000064,0,1120,2304
8.859414544000174,0,1424,0
8.862341329000174,0,1456,0
8.866387226999905,1888,1344,0
8.869490615999894,1120,2416,0
8.873278161000144,2992,1088,0
8.876426770999842,2048,1120,0
8.8802851800001,336,1760,0
8.883372898999824,256,1696,0
8.886500804000207,0,560,0
8.89047569200011,7425,1696,0
8.893348417000198,144,1760,0
8.897456325999883,5105,880,256
8.900369226999828,0,768,0
8.904411896000056,3584,1664,0
8.907384249000188,4353,1776,0
8.911260911000227,256,1456,0
8.914483690999987,4849,2640,0
8.918370491000132,4881,1168,0
8.921393095999974,1728,1008,0
8.925374005999856,4113,80,0
8.92846671999996,112,2352,0
8.93147314099997,0,2784,0
8.93527111000003,8514,5889,0
8.938395404999937,0,1712,0
8.942187920999913,4961,656,0
8.945497003000128,2160,1712,1120
8.949053444000128,864,5777,0
8.952077306999854,6401,2512,0
8.95602909299987,1200,5377,0
8.959999763000269,18436,1392,0
8.963019803999941,640,1136,0
8.966968970999915,17684,0,1328
8.970304731999931,18196,1488,0
8.97431100599988,13155,1568,0
8.978281788999993,33544,1280,0
8.981301182000152,23733,2304,0
8.985295170999962,6401,3072,0
8.988338341000144,36392,1280,0
8.992151468999964,11298,1792,0
8.996305268000015,21861,784,384
8.999323126000036,1904,864,0
9.003254585999912,2096,1552,0
9.006232091000129,2352,1456,0
9.01011171800019,3776,512,0
9.013262462000057,544,2640,0
9.01725113600014,13315,1344,0
9.020261269999992,1552,1504,0
9.024096137000015,2816,1328,0
9.027249946000211,368,1168,80
9.031304821000049,4273,1248,0
9.034379197999897,6401,1872,0
9.038307175000227,11362,832,432
9.042186889000277,6561,1792,0
9.045449288999862,22629,2992,0
9.04923744000007,8466,2192,0
9.052458460000253,1408,1136,0
9.056371340000169,736,2096,0
9.059350337000069,24998,1456,0
9.063385996999841,19652,6145,0
9.067276159999892,6113,1104,1648
9.070339713000067,0,2864,0
9.074627982000038,20885,1360,0
9.077490806000242,11890,768,0
9.081349133999993,7249,2448,0
9.084299634000217,3088,2704,0
9.088298380000197,25782,2128,0
9.092132915000093,13603,1808,0
9.095474734000163,23765,2224,448
9.099279145999844,65535,1168,0
9.102516053000272,3728,2096,0
9.106446018000042,22485,2432,0
9.110157251000146,10562,2448,0
9.113499004999994,26982,1072,0
9.11731027299993,11010,2576,2336
9.121418125000218,11794,1296,0
9.124393360999875,22869,2160,0
9.128294186999938,6849,3232,0
9.13231533599992,1312,1584,0
9.135469930999989,8594,1776,784
9.13937028800001,480,1200,0
9.14246933100003,24886,1648,0
9.146431770000163,2304,2304,0
9.149537123999835,3072,1248,0
9.153326331000244,6433,6081,0
9.156542982000246,15123,0,768
9.160394436999923,22165,3328,0
9.164278503999867,10658,1344,0
9.167264178000096,9874,656,0
9.171415893999892,16099,1280,0
9.174412874000154,2304,1824,0
9.178390433000004,672,560,0
9.181484669999918,304,1600,0
9.184322984000119,0,1584,0
9.188225177000277,6817,6065,0
9.191414113000064,1248,1792,0
9.195493408999937,12483,2096,1024
9.19937165600004,5425,5985,0
9.202501972999926,8402,1872,0
9.206420995999906,4945,3840,0
9.210137780999958,6081,2192,0
9.213450791000014,4465,2736,0
9.217204334000144,17828,736,160
9.220276268999896,0,944,0
9.223326858999826,1248,2400,0
9.22723500200027,5041,2704,0
9.23035598000024,928,1616,0
9.23423261500011,6913,4561,0
9.23813155400012,7233,1216,0
9.24123644500014,14403,1600,0
9.245176573000208,12146,1040,0
9.24828978100004,4849,1136,0
9.252127370999915,14835,2560,0
9.256017903000156,8434,1216,688
9.259097979000217,4641,1008,0
9.263033447999987,11218,1200,0
9.26629977499988,4801,1424,0
9.270276956000089,9218,2464,0
9.273260378000032,352,1392,0
9.277225523000197,1744,0,0
9.280299331000151,3664,2256,0
9.284213637999983,112,1712,0
9.287207739000223,3920,1792,0
9.291262587999881,16596,1024,0
9.294320092999897,3968,1792,0
9.298270132000198,5041,1760,0
9.301302132000274,512,1120,0
9.305252891000237,10610,1696,208
9.309097310000197,13443,2480,352
9.312221270000009,2416,2608,0
9.316334686000118,3840,4593,0
9.31922903900022,3360,2272,0
9.323230324000178,12467,2752,0
9.327429510999991,1328,1056,592
9.33053774400014,1280,3328,0
9.334420873999989,224,2336,672
9.337402168000153,704,1584,0
9.341311944000154,1040,6145,0
9.345333062999998,1632,1840,0
9.348410903000058,5393,3328,0
9.352341049000188,2352,1184,0
9.355463904999851,816,2592,400
9.359302350000235,528,1328,0
9.362490020000223,2304,1920,0
9.366396075000011,816,2304,0
9.369468838000103,4689,2640,0
9.373284752000018,3232,1712,0
9.376263466000182,0,1216,0
9.379533906000233,912,1264,0
9.383465474999866,1792,4945,0
9.386365386999842,864,1952,0
9.390396836000036,5073,7217,0
9.393460594999851,2512,1520,0
9.397225027999866,3568,2768,0
9.401349616000061,1056,2112,0
9.404469396999957,2304,928,0
9.407517032000214,768,976,0
9.411341609999909,2384,3888,0
9.41451988200015,816,2208,0
9.418415277999884,288,7393,0
9.421538372000214,1904,1712,0
9.42531924900004,496,1456,0
9.428395823999836,3792,1616,0
9.432215610000185,2208,1296,0
9.435465153000223,0,1952,0
9.43940452400011,368,2032,0
9.442542052000135,2304,1312,0
9.445510150000246,0,1856,0
9.449418777000119,2320,6801,0
9.45255784300025,5329,3600,0
9.456338378000055,4625,2448,0
9.45930985799987,112,1120,0
9.463319023000167,6353,4305,0
9.467319376999967,1792,2528,432
9.470380019000004,4097,2864,0
9.474434928999926,3040,3472,0
9.47730480600012,352,1456,0
9.481328416999986,368,336,0
9.484378833999926,2016,1552,0
9.488401948000046,1808,2032,0
9.491505211999993,1024,1904,0
9.495407636999971,816,1776,0
9.498467236000124,0,1264,0
9.501509563000127,768,1168,0
9.505421937999927,1328,3440,0
9.508456956999908,5041,1024,0
9.512451458000214,5713,4273,0
9.515451300000223,528,1888,0
9.519233803000134,0,4769,0
9.522330093000164,2048,1456,0
9.52621665300012,48,2048,160
9.529353641999933,5777,2160,0
9.53324669299991,4945,2512,0
9.536319567000191,0,1472,0
9.539326583000275,0,928,0
9.543267632000152,1584,1360,0
9.546270094000192,1264,1280,0
9.550158335000106,6305,5105,0
9.55316566600004,1568,1392,0
9.557093542000075,5889,3600,0
9.56011695899997,608,880,0
9.564279612000064,576,7441,0
9.567204481999852,1776,1616,0
9.571312977000161,3824,2048,0
9.574285690000124,1024,2192,0
9.578303465999852,5265,2880,0
9.581337972000256,1328,3328,0
9.585257729000205,2608,3040,0
9.589281725000092,3600,1760,0
9.592099335000057,3360,3568,0
9.59521768500008,0,2144,0
9.599285220000183,1280,4609,0
9.602345632999914,2816,1072,0
9.606209130000025,4737,2816,0
9.610248263999893,3872,1824,0
9.613237386000037,3840,2272,0
9.616366542999913,864,368,0
9.620407085999886,0,3440,0
9.62348255400002,3248,1280,0
9.627336453000225,768,1584,0
9.630437209999855,4177,1280,0
9.634412768999937,2032,2672,0
9.637341039000148,224,928,0
9.641243914999905,752,1360,0
9.64447862499992,2064,1280,0
9.648279468000055,2304,2304,0
9.65149903800011,1632,1328,0
9.655364039000233,1088,720,0
9.658313660000204,0,1840,0
9.661499761999949,608,1280,0
9.665410983000129,560,2720,0
9.668481875999987,2384,1312,0
9.672388918000252,4433,5201,0
9.675383965000037,1552,2800,0
9.679423497000244,576,4993,0
9.682510008000008,3088,752,0
9.686411496999881,736,2416,0
9.689398140999856,4753,1616,0
9.693409568999868,4561,2208,0
9.69651403800026,512,1040,0
9.700385159000234,0,1248,0
9.703487462999874,3648,1696,0
9.706512257000213,704,816,0
9.710456003000218,5729,4161,0
9.714306598999883,2144,2320,0
9.717416664000211,688,912,0
9.720444884000244,2272,2320,0
9.724432058000275,3120,3952,0
9.728343498999948,3008,2256,0
9.731311564999942,2304,2048,0
9.734541444000115,816,2112,0
9.738467718000265,2848,2992,0
9.741549124999892,768,1680,0
9.745464586000253,4321,3232,0
9.749337236999963,2528,1968,0
9.7524474679999,3872,1616,0
9.756148031000066,928,2160,0
9.759404065000126,704,1264,0
9.763312085000052,2272,1184,0
9.76645056999996,2592,2512,0
9.770257397000023,5425,1632,0
9.77346592999993,4193,2608,0
9.777219965999848,272,976,0
9.780408680000164,2384,2560,0
9.78436472300018,1872,1216,0
9.787381644000106,1392,1872,0
9.791359518000263,1760,2448,0
9.794478819000233,2736,2464,0
9.798178258000007,416,1696,0
9.80130837500019,672,1104,0
9.80542070699994,3328,1760,0
9.808492519000083,3072,2816,0
9.812240769000255,2736,1600,0
9.815320378000251,80,2048,0
9.818379490000098,256,544,0
9.822295766000025,3072,5041,0
9.825416465000217,368,1696,0
9.82930191000014,6529,5377,0
9.832397672999832,4913,2480,0
9.836271183000008,4177,3104,0
9.839344506000089,0,768,0
9.843150012000024,2480,1968,0
9.846169245000056,1568,2352,0
9.85011604400006,3712,1456,0
9.853105495999898,3840,1792,0
9.857040506999965,0,7425,0
9.860268948999874,112,1504,0
9.864355611000065,1392,1776,0
9.867229887000121,2816,2064,0
9.871308724999835,752,1328,0
9.874371902999883,1712,2064,256
9.878218318000108,0,1280,0
9.881339407000269,1152,768,0
9.884299627000019,48,1632,0
9.888309536000179,3408,6801,0
9.891388900000038,1952,2304,0
9.895304799999849,3584,2880,0
9.898275140999885,160,2320,0
9.902351796999938,7329,2912,0
9.906319748999977,1280,1872,0
9.909190895999927,6801,2816,0
9.913180418000138,4497,944,0
9.916476696000245,3328,3552,0
9.919545061999997,0,1136,0
9.92347104999999,2016,1296,0
9.926391291000073,1808,1248,0
9.930347401999825,5665,5889,0
9.933592094000232,2992,2992,0
9.93736729200009,1952,2048,0
9.940576310999859,0,1552,0
9.944441803000245,3072,1600,0
9.947496456999943,368,2256,0
9.951459827000235,2112,1200,0
9.954530718000115,1488,2048,0
9.95839401100011,0,1456,0
9.961483546000181,256,768,0
9.965383542999916,1232,1792,0
9.968501566000214,3152,2080,0
9.972383272000116,2640,3344,0
9.975357549999899,688,1488,0
9.978563824000048,96,1616,0
9.982479725999838,1648,5377,0
9.985555686000225,1024,2816,0
9.989412968000124,6705,4353,0
9.993197241999951,4513,2816,0
9.996307837000131,544,1280,0
9.99953744100003,816,2368,0
10.003304857999865,7025,4401,0
10.006273199000134,64,1008,0
10.010468128999946,6897,4353,0
10.01354469900025,2736,2128,0
10.017236154999864,0,3024,0
10.020522766999875,1280,1584,0
10.024237801000254,3312,1456,0
10.02741899800003,544,1792,0
10.031439314000181,2128,1312,0
10.034428000999924,2032,2000,0
10.038460333999865,176,1536,0
10.041548025999873,1184,1760,0
10.045442646000083,368,3552,0
10.048555588,2384,1376,0
10.052353717000187,3632,2192,0
10.056379418000233,1824,1328,672
10.05937448900022,1808,2464,0
10.063380944000073,2544,1424,0
10.06638573500004,336,2208,0
10.07038991599984,5345,1792,0
10.073514125000202,3168,2576,0
10.077267395000035,336,1472,0
10.080439816999842,1088,1712,0
10.084315378000156,3088,1968,0
10.087354989000232,1792,1696,0
10.091286473999844,960,1312,0
10.094435385999986,3328,2560,0
10.097399558000234,0,1296,0
10.101315543000055,2304,5217,0
10.105367049000051,1200,3088,0
10.108338421000099,3840,3104,0
10.111302506999891,0,1424,0
10.115231150999989,2400,2784,0
10.118298094000238,48,976,0
10.122222606999912,1472,1264,0
10.125313390999963,1264,1168,0
10.1292201199999,4433,2528,0
10.132302473999971,4305,2160,0
10.136232333999942,1120,1840,272
10.139330130999952,512,880,0
10.14313915799994,464,1296,0
10.14615394800012,1456,1472,0
10.15010085799986,4785,1936,0
10.153089313000237,3232,2032,0
10.157196706999912,0,6497,16
10.160344574000192,1040,2640,0
10.164316339999914,0,2768,0
10.167278051000267,2304,2416,0
10.171300963000249,1696,1968,0
10.174320355999953,1792,1712,0
10.17829229500012,304,1248,0
10.18130255999995,816,1520,0
10.185267382999882,1488,1792,0
10.188321882999844,2512,2096,0
10.192076071999963,2128,2192,0
10.19536592400027,560,1824,80
10.199220081000021,336,1648,0
10.202375539000059,3328,1456,0
10.206339265000224,160,2080,0
10.209218374000102,3248,1040,0
10.213188527000057,5041,2528,0
10.216309786000238,0,1776,0
10.219523107999976,0,1232,0
10.223395954999887,1792,1216,0
10.226370405000125,672,2256,0
10.23040737700012,3184,2672,0
10.233526931000142,3360,2816,0
10.237281126000198,784,1136,304
10.24045864100026,0,2704,0
10.244314599000063,2064,1936,0
10.247512297999947,768,1280,0
10.251451118000205,1312,912,0
10.254551279000225,2048,2256,0
10.258392780000122,48,1776,0
10.261479186000088,512,1600,0
10.26540657500027,1296,2352,0
10.268535034000251,2832,2448,0
10.272462273000201,3056,2000,0
10.275529394999921,1232,1824,0
10.278434414000003,0,1008,0
10.282504433000213,6961,3024,0
10.285436068999843,48,1760,0
10.289382930000102,5745,7825,0
10.292332782999893,5121,2064,0
10.296378584000195,1504,3840,256
10.300464549000026,400,1712,0
10.303369069999917,3632,1264,0
10.30727953099995,1456,1408,0
10.310463639999853,2304,2800,0
10.314344810999955,1744,1872,0
10.317282320000231,0,1136,0
10.320503131999885,848,240,0
10.324475963000168,1040,6321,0
10.327552624999953,1792,1392,0
10.331330904999959,6401,3600,0
10.335370069999954,1968,1792,0
10.338418666000052,2016,2576,0
10.34245758499992,2384,1424,0
10.345532681999885,2704,3088,0
10.349453559000267,2208,2288,0
10.352510492999954,3840,1792,0
10.356402452000111,272,2224,0
10.359358108999913,64,2112,0
10.363392747000034,3360,2128,0
10.366521555999952,1776,2752,0
10.370356258999891,3152,2208,0
10.373499802999959,3840,2544,0
10.378417922000153,0,1376,0
10.380188399999952,3872,3840,0
10.384160816000076,2320,1808,0
10.387236063000273,2592,2304,0
10.391205362000164,3584,1520,0
10.394299223999951,2736,2144,0
10.397340216999964,0,1056,0
10.401243183000133,2704,6945,0
10.404365624000093,1024,2560,0
10.408168886000112,4113,5665,0
10.412069725000038,3904,1744,0
10.415121615999851,2592,2592,0
10.418091643000025,0,1600,0
10.422040411000125,2512,7233,0
10.425092079000024,1024,2304,0
10.429059284000232,4064,4529,0
10.433014612000079,5009,1504,0
10.436065676999988,2672,3072,0
10.43907131800006,0,1024,0
10.443069981999997,1248,1072,0
10.446045998000045,1040,2576,0
10.450020077999852,5137,5457,0
10.45308561999991,4401,2016,0
10.456988487000217,4801,2528,0
10.46010924600023,416,1952,0
10.464090585000122,8482,3952,0
10.468072106999898,2272,2720,0
10.471089734000088,3632,592,0
10.475051477999841,1776,2448,0
10.478059192000273,1808,1440,0
10.481099815000107,336,272,0
10.485068763000072,496,5649,0
10.488086242999998,2592,2464,0
10.492011547999937,3312,6321,0
10.495091365000007,1968,1280,0
10.499990102000083,3328,2720,0
10.503046628999982,1280,2480,0
10.506055089000256,2656,3200,0
10.510308282000096,2592,944,0
10.513305693999882,5377,3520,0
10.516247636000116,0,1328,0
10.520416566000222,16,1280,0
10.523386978999952,2576,1696,0
10.527285987000141,352,2048,0
10.5303159959999,6129,2528,0
10.534036188999835,3760,2816,0
10.53723541699992,544,736,0
10.540112157999829,64,768,0
10.54433982799992,1792,5873,0
10.547239075000107,1168,1936,0
10.551196593999975,4369,2480,0
10.554280515999835,672,2000,0
10.558136779000051,2768,2560,0
10.562304390999998,1888,1392,0
10.56538274400009,2912,2816,0
10.569306571000197,2816,2800,0
10.57239222599992,3792,2272,0
10.57647004799992,256,1040,224
10.579378554999948,0,1408,0
10.58339570499993,1280,3168,0
10.586540284999955,1024,3056,0
10.590281591999883,3088,1488,0
10.59339679499999,4369,3504,0
10.596596815999874,0,688,0
10.600395509000009,224,6929,0
10.603615290000107,4561,1584,0
10.607331167000211,2960,7985,0
10.61040261900007,5473,2768,0
10.614364475999992,5985,4369,0
10.617400464000184,176,1184,0
10.62146427200014,3408,3888,0
10.624595891999888,2912,2320,0
10.628546127999925,4016,3840,0
10.63226392200022,2912,1568,0
10.635521285999857,3424,2992,0
10.63855385800025,0,992,0
10.642299444999935,496,1232,0
10.645398111999839,944,2144,0
10.649310170000263,1968,2304,0
10.652386620000016,4129,2512,0
10.656301342999996,144,2320,0
10.659411909000028,0,960,0
10.662585889000184,3696,1296,0
10.666496973999983,4097,4209,0
10.67032010999992,4209,1872,0
10.673524119999911,5425,3840,0
10.677200140999958,704,1776,0
10.680569903000105,2976,3104,0
10.684271781000007,5041,2032,0
10.68730269300022,2048,1392,0
10.691267328999857,1648,1152,0
10.694345179000265,2560,1280,0
10.698231332999967,672,1024,0
10.701347323999926,2128,336,0
10.705230260999997,944,1536,0
10.708424404000198,2816,2816,0
10.712154326000018,2736,1424,0
10.715256018000218,944,2320,0
10.718227563000255,256,608,0
10.722111054999914,2304,5121,0
10.725175986000067,752,1264,0
10.729263311000068,5633,6001,0
10.732329258999926,5153,2384,0
10.736369523000121,4673,4977,0
10.739100318000055,0,1872,0
10.743290478999825,1392,768,0
10.746411117000207,512,1808,0
10.750403179999921,5937,2672,0
10.75327762500001,3632,2240,0
10.757207274999928,0,1632,0
10.760345009000048,256,1072,0
10.763361526000153,944,96,0
10.767214694999893,1616,2592,0
10.770376412000132,3040,1616,0
10.77428120400009,3856,2576,0
10.777198553999824,0,368,0
10.78039677400011,0,784,0
10.784304089000216,3232,1552,0
10.787219993000235,416,1328,0
10.791272813999967,1552,2304,0
10.794415540000045,2048,2608,0
10.798370019000231,0,1536,0
10.801332082000044,2896,2096,0
10.805284721000135,2160,1888,0
10.808462790000249,2480,1824,0
10.812471444000039,2016,1968,0
10.815605201999915,1296,1376,192
10.819513735999863,4273,3216,0
10.823226087999956,3856,1072,0
10.826524798000264,3440,2752,0
10.83028400100011,3312,1616,0
10.833451778999915,4753,2304,0
10.837248284999987,192,768,0
10.840433032999954,3648,2752,0
10.844436463999955,2736,2768,0
10.847326128000077,2816,1792,0
10.851344346000133,4785,1040,0
10.85443416299995,1808,2768,1328
10.858411930999864,3248,2992,0
10.861446290000004,1952,800,0
10.865359720000015,768,4865,0
10.868455463999908,3040,2304,0
10.872347598000033,2896,7249,0
10.875634622000234,768,2096,0
10.87949380200007,48,5377,0
10.882426773000134,1392,3024,0
10.886366246999842,256,1872,0
10.8894259409999,5041,2416,0
10.893288756999937,6001,4289,0
10.896447336000165,976,1952,0
10.900421223000194,0,2240,0
10.903536365000036,3664,1168,0
10.907242864000182,400,1584,0
10.910453048999898,6177,1376,0
10.914449197000067,2128,2016,0
10.91730120300008,928,624,0
10.920467534000181,0,2048,0
10.924541497000064,2384,3136,880
10.927374630000031,0,2512,0
10.931298719000097,1744,2704,0
10.935388038999918,1632,1712,1088
10.938399076000223,208,2304,0
10.941407632999926,160,1792,0
10.945485927999925,4609,3648,0
10.949423000000024,14611,1504,0
10.952358412000194,8498,4321,0
10.95637554699988,12547,2624,2224
10.959420747999957,768,496,0
10.963405838000199,3008,6033,0
10.966624429000149,4145,2064,0
10.970380648000173,7121,3840,0
10.974294480000026,5201,2480,768
10.97748538399992,1024,1360,0
10.981343379000009,1568,1184,0
10.984384060000139,5041,2016,0
10.988310241999898,5473,2080,0
10.991431658000238,2672,1280,0
10.995328627000163,608,6513,0
10.998409601000276,768,1376,0
11.002327823000087,3344,1840,0
11.005386713000007,1232,2304,0
11.009195383000133,8434,6097,0
11.012232067000241,2144,1632,0
11.016156349000084,5345,3040,0
11.019178531999842,256,432,0
11.023377855000035,512,1024,0
11.026383802000055,1280,1360,0
11.030089336999936,8594,1728,0
11.033314227000119,5281,2016,0
11.03724099100009,5953,4080,0
11.041332713999964,14851,1376,0
11.044399770999917,1472,2000,0
11.048283749999882,2960,960,0
11.051382725000167,5297,1280,0
11.055362099999911,1424,1584,0
11.058339435000107,21989,1760,0
11.062383684999986,15987,1392,0
11.065393532000144,14179,1792,0
11.069275811999887,4337,2816,0
11.073195324000153,29959,2816,0
11.076437913000063,10242,1936,0
11.080135666999922,0,2320,0
11.083424428999933,7393,7073,0
11.08716898900002,0,3872,3312
11.090410613000131,12130,1072,0
11.0945122359999,50908,3072,0
11.098342006000166,17156,3728,880
11.101387622999937,28022,2048,0
11.105498398000236,3360,2240,0
11.108587137000086,12547,3040,0
11.112393945999884,912,6129,0
11.115453535000142,448,4465,0
11.119363038999836,1792,1440,0
11.122589395999967,2048,224,0
11.126574869000251,1840,1184,1248
11.130319822000274,8274,1232,0
11.133313384999838,16275,4753,0
11.137239572999988,512,2384,800
11.140549461999854,9202,1888,0
11.144522078000136,7585,4257,0
11.148350529000254,12563,1488,640
11.15160886700005,10674,2400,0
11.155448886000158,2224,5377,0
11.159370828000192,9698,3360,816
11.163267395000275,21365,4385,2832
11.166562991999854,5121,2384,0
11.170512744000007,13347,1872,0
11.173613496000144,8738,1776,0
11.177270145999955,928,3968,0
11.180552248999902,4401,2528,0
11.184452019000219,2496,2000,0
11.187383555999986,5633,1488,0
11.191291706999891,5041,784,0
11.194572907999827,7649,1024,0
11.198345506999885,4673,1328,0
11.201532196000244,6241,3424,0
11.2053965529999,9298,3360,2304
11.209259541999927,2400,5633,0
11.212529778999851,2048,1296,0
11.216331995000019,10402,464,0
11.219531839999945,1024,1104,0
11.223458607999873,8690,704,0
11.227225883999836,2896,2192,1200
11.230464622999989,3536,1616,0
11.234244495999974,1264,2480,0
11.237340809000216,18292,1104,0
11.241342473000259,4449,1056,0
11.245328378000067,28935,1568,2304
11.248610903000099,10914,19028,0
11.252474302999872,26566,11490,176
11.256320468000013,5105,7201,0
11.259609702000034,24117,4977,0
11.263439819000268,224,5073,11538
11.267287011999997,9506,1904,0
11.270496869999988,832,1648,0
11.274352372000067,18692,928,0
11.277515372999915,15875,1600,0
11.281241774000137,0,1360,0
11.284525686000052,10210,2256,0
11.288332327000262,12659,1104,0
11.291515556999911,10866,944,0
11.29543828900023,4641,5921,912
11.299131751999994,16035,288,0
11.302220638000108,15843,1392,0
11.306174933999955,1488,4097,0
11.309145825000087,8706,944,0
11.313055590000204,40553,768,0
11.31611921900003,720,864,0
11.320282852000219,6641,3536,0
11.323154807000265,2816,1008,5521
11.327272511000047,7025,15411,464
11.331390146000103,7937,1792,7793
11.335311594999894,19812,1376,7089
11.339258055999835,30423,21701,0
11.343337695000173,12627,5425,2768
11.34638833400004,10498,12178,0
11.350373473000218,5409,6497,0
11.354407339999852,3120,21525,11906
11.358089907000249,4753,4097,3856
11.361389993000103,9698,1280,0
11.365244255000107,0,1440,1344
11.368353568000202,11138,3744,944
11.372238582000136,7153,8450,0
11.375202354000066,1024,5377,0
11.379356611000276,16035,3920,0
11.383284512000046,5473,752,0
11.386464853000234,992,3792,1712
11.390407773999868,3504,3600,960
11.393537658000241,2064,400,0
11.39730033700016,160,4064,0
11.401472225999896,12274,3744,3728
11.405385153000225,1568,2128,2480
11.408447014000103,8450,2160,3232
11.41243430700024,5889,1616,8177
11.41635406100022,6401,8978,1120
11.420331725999858,16452,4016,9074
11.424196196000139,1568,1056,3328
11.427559039000244,30359,4097,7345
11.431372497000211,8962,19988,0
11.43516826999985,2048,14787,0
11.438191018999987,9778,768,0
11.442117809000138,3040,2128,0
11.445106385000145,0,2928,720
11.449111463000008,9554,2000,3680
11.453106732999913,4337,768,1616
11.456118039000103,608,4961,0
11.459090766999907,0,1200,0
11.463100019000194,4113,6481,1648
11.46708941199995,15443,9954,1280
11.471033186000113,1184,7073,0
11.474072481999883,2880,0,0
11.477043803000015,4113,768,0
11.481051533000027,0,3616,0
11.48407989799989,3280,1280,0
11.488046295999993,0,2480,8674
11.491085616999953,6881,11682,0
11.495083555999827,10610,5073,2416
11.49905188899993,11266,1792,0
11.502098850000039,0,1248,0
11.506061024000246,24357,6257,3072
11.510024295000221,5217,12435,7073
11.514046632999907,28422,14643,4641
11.518052355000236,16820,4353,9474
11.521089010000196,8530,4353,0
11.525084724999942,29655,15635,0
11.529062474000057,28695,12034,0
11.532108738000261,6689,6497,0
11.53609862400026,11458,2624,0
11.53911516800008,2000,5889,0
11.543108947999826,17076,1440,0
11.547099886000069,3792,1504,2304
11.551089645000047,14179,4417,256
11.554149823999978,1280,2480,1312
11.558126712000103,0,1856,3984
11.56111581999994,512,2048,0
11.565128893999827,5537,624,2112
11.569088273000034,1488,2816,10258
11.572139150000112,0,1184,3072
11.57611097400013,8738,7649,1328
11.580083017000106,6257,208,6577
11.583113378000235,1392,752,0
11.587124495999888,0,14083,2832
11.590116577000117,256,1600,0
11.59411471600015,1584,4641,352
11.59802541199997,0,32,2432
11.608257990999846,13123,12002,0
11.608625889999985,6513,2160,8482
11.609559200000149,8754,11826,5569
11.613079393000135,4465,6657,944
11.61607623000009,3568,3328,6609
11.620045133000076,8177,3120,0
11.624053445999834,14083,1056,0
11.627101817000039,880,3632,4769
11.631024861000242,7585,5121,0
11.63504029600017,8658,8994,1888
11.639014265000242,20308,7985,7729
11.642112669000198,10290,8306,0
11.64606933999994,6241,1280,3328
11.650065352000183,24021,15443,0
11.653148025000064,9570,6913,7537
11.657152709999991,2528,18708,0
11.661073414999919,8802,1072,0
11.66412327299986,6961,3024,0
11.668100945999868,15411,1136,2352
11.672074687000077,3392,1280,0
11.675060075000147,4657,1792,0
11.678111349000119,256,480,0
11.682097294999949,2576,3840,2576
11.68609872900015,22293,5217,5329
11.690043389000039,4000,8370,3664
11.694086440999854,12114,11986,9074
11.698098858999856,4577,2528,4641
11.701105489999918,0,1888,0
11.705031679000058,4673,4401,0
11.708108584000001,5537,3392,0
11.712108876000002,1456,560,9122
11.715128266000193,0,9458,0
11.718125736000275,0,1456,0
11.722108589000072,256,3568,0
11.725112266999986,3840,1184,0
11.72912728900019,5585,1296,6577
11.733098677000271,12723,1712,0
11.736125099000219,1552,1504,0
11.740099762000227,6161,6913,0
11.744083115000194,14643,304,3232
11.747124995999911,3840,6401,0
11.751060784999936,3664,7121,4449
11.755079888000182,480,2192,112
11.758102754999982,304,3216,0
11.761129292000078,0,1008,0
11.765069522999966,0,1440,0
11.768081898000219,10866,752,0
11.772082208000029,2592,3328,0
11.775122127000031,2976,4641,13091
11.779090146000271,7681,19204,0
11.783037534999949,3760,3984,0
11.78699438800004,2304,1200,13091
11.790099442000155,12066,9426,0
11.79407937499991,1584,2176,5121
11.798045435999938,1280,11634,0
11.801087398000163,0,5233,0
11.804104238000036,0,4513,1232
11.808073545999832,6913,11490,3728
11.812101800000164,0,880,7073
11.816089835000184,5889,8498,9474
11.819124216000091,7985,8802,0
11.822140903000218,0,528,0
11.82609550799998,20132,2832,3584
11.830081545000212,2816,4865,3936
11.833151253999858,1680,6401,0
11.837090165000063,0,3840,0
11.84104926100008,7937,3872,3808
11.844084614000167,3936,10722,0
11.847103548000177,0,1616,0
11.85104856099997,14867,3840,0
11.854104132999964,848,2816,0
11.858076522999909,2704,1280,0
11.862057574000119,7537,1248,6209
11.865091827000015,3328,1408,0
11.86906260700016,2896,4097,0
11.872068518000106,5041,4977,0
11.876046503999987,8530,2544,0
11.879100569999991,0,992,0
11.883076779000021,912,10882,2800
11.886119899000278,768,480,0
11.890045589000238,3504,912,0
11.893070470000112,4513,6625,0
11.897054958999888,0,1280,0
11.900086867000027,48,848,8049
11.903171449000183,0,3760,0
11.907120003000273,7089,7425,0
11.910121173999869,592,7169,0
11.914125753999997,7713,6577,0
11.918105383000238,14227,6289,992
11.921134603000155,160,8930,0
11.924145335000048,0,4097,0
11.928126084000269,3840,3344,0
11.931129384000087,1120,528,0
11.935093946000052,6305,4337,0
11.938162853999984,4257,1008,0
11.942124565000086,2336,3504,0
11.946090006999839,0,1312,5361
11.949115850999988,21605,2160,0
11.953105655999934,16868,12387,0
11.957118921000074,14163,7329,4881
11.961099386000114,8290,17588,7585
11.9641260530002,3376,864,4721
11.968103648000124,608,7409,0
11.972109992000242,16868,2496,288
11.976079763000143,11250,12723,5649
11.979139125000074,10210,14179,0
11.982132954999997,0,16,0
11.986134672999924,2672,1136,3952
11.990126754999892,8994,2288,720
11.993162059000042,6641,1488,0
11.997113175999857,0,2864,2848
12.000125415000184,0,496,0
12.00317357799986,0,5377,0
12.007101118000264,912,7457,1488
12.010128438000265,0,6529,0
12.014136346000214,2064,4273,0
12.017175146000227,3488,6113,0
12.021145264000097,4689,2160,0
12.024144286000137,0,8450,0
12.028164498000024,12435,2496,304
12.03208851699992,4273,3408,944
12.035125836000134,0,8882,0
12.038133464000111,0,432,0
12.042068383000242,5377,4865,0
12.046091125000203,2304,1904,3856
12.049084651000157,1792,1632,5681
12.05308498400018,7521,5249,0
12.056117484999959,0,1392,1360
12.060065298000154,5601,1376,0
12.064033301000109,7713,1216,0
12.06711595600018,6401,10722,8930
12.071133421000013,21733,3472,1776
12.075137842000004,5617,10034,0
12.079155690999869,12467,5569,14419
12.083114154000214,37641,30199,14163
12.087112459999844,12146,256,2400
12.090155352000238,4657,8882,288
12.094096945000274,7249,12274,0
12.098104805000276,3744,272,0
12.101143434000278,112,1792,0
12.10417784099991,256,4513,0
12.108114702999956,7425,3424,0
12.11111019100008,1792,560,0
12.115402854999957,2160,5553,1264
12.119187377999879,6497,976,0
12.122075890999895,6097,3888,0
12.126037852000081,7793,2816,0
12.129122243999973,24854,9874,0
12.133112044999962,14595,9330,0
12.136127965000014,5889,880,0
12.140086969000095,5713,10242,0
12.144160389000263,13491,1040,1968
12.14713579399995,2048,288,0
12.151129475999824,2880,5393,3072
12.155118229999971,4353,16163,0
12.158103041000231,6321,336,0
12.16207839000026,14515,20949,0
12.16606272800027,18692,5297,0
12.169148148000204,2688,7553,1872
12.173161771000196,2576,4865,3744
12.177142231999824,18388,2592,2304
12.18110660100001,512,3776,0
12.184128582000085,960,1712,0
12.187117044999923,912,11010,0
12.191141278000032,1840,4064,1520
12.195063090000076,12034,0,0
12.198119019999922,5921,1856,0
12.202091176000067,10866,9474,0
12.206079732000035,7729,20068,5217
12.209153995000179,13283,28646,0
12.21312436900007,4849,3680,0
12.216150226000082,5361,672,0
12.220125347000248,2320,5985,0
12.223127549999845,688,304,0
12.227112242000203,0,10258,0
12.23013380500015,1040,800,0
12.234098846000052,3952,176,0
12.237135585000033,4913,848,160
12.241107788000136,3488,4273,0
12.244167956000183,13027,11874,0
12.248170048000247,12258,3728,4577
12.25209132200007,3056,25238,0
12.255174490000172,6945,4353,0
12.259142799000074,2448,4865,2224
12.26313307800001,9218,6705,4513
12.267117936999966,24726,848,0
12.270169753000118,10546,4000,4385
12.274103771000227,13059,5169,0
12.278071932999865,4705,2704,0
12.281115677999878,1296,784,0
12.285077075000117,1568,13075,0
12.289078533000065,14627,1008,4913
12.29208097799983,3232,2992,0
12.29610171000013,0,8450,4000
12.299102037000011,4048,8786,0
12.303068860000167,5889,1568,6913
12.306109837999884,0,1792,0
12.31010068500018,9474,2544,0
12.313158976000068,12467,144,0
12.317128010000033,8145,4433,0
12.321099334999872,12435,6945,16307
12.325093252999977,15043,8482,4145
12.329105065000022,3632,1936,3488
12.33212656500018,944,3184,0
12.336102482000115,16131,544,0
12.339136980000148,2096,6129,0
12.343105403000209,10722,2032,0
12.347107682000114,14547,2208,4353
12.35015972300016,11730,5105,2816
12.35412689299983,256,3952,0
12.358113410999977,3904,1872,6417
12.361074077000012,544,6417,14595
12.365148903999852,3984,7425,960
12.36913032099983,1712,0,352
12.372125503000007,8818,2976,0
12.37518755200017,0,1072,0
12.379170982000232,624,4465,0
12.382187793999947,2304,2832,0
12.386157146000187,0,3616,0
12.390056561000165,9170,2416,3776
12.393142998000258,8466,4257,0
12.397107297000275,21301,13795,0
12.400189959000272,7217,2720,0
12.404175268000017,17700,3376,2272
12.408158286999878,17508,7281,0
12.411184965999837,3632,464,0
12.415166718999899,0,2128,1024
12.418186950999825,18036,11874,0
12.422179936000248,3792,6369,3328
12.426175110000258,112,17156,352
12.429176636000193,0,2464,0
12.43316447999996,3840,6305,0
12.437085902000035,7825,4913,256
12.44015071900003,17700,9234,0
12.443187988999853,0,3328,0
12.447171149000042,656,4113,0
12.45020376299999,8482,1632,0
12.454173465000167,720,28390,720
12.458149258000049,6449,480,0
12.461147380000057,9538,1792,0
12.46418697099989,0,6161,0
12.468178577999879,4865,2400,1552
12.472134673000255,2816,688,0
12.475174976999824,5601,176,0
12.478192506000141,2416,496,0
12.482149884000137,2864,6321,0
12.485192433000066,5153,800,0
12.489175266000075,2736,8322,0
12.493152409000231,2304,1680,0
12.496184188999905,3088,8930,0
12.50012917999993,7073,1776,2336
12.504166841999904,12034,13139,0
12.507110564999948,9202,576,4801
12.511175038000147,23813,96,8706
12.515159089999997,17300,2480,0
12.518151419999867,416,8001,0
12.52217524200023,37497,8914,27174
12.526170955999987,12771,11666,0
12.529192416000114,14339,768,768
12.533188622000125,24838,6577,3072
12.53718649099983,2784,12835,560
12.541174231000241,18180,6001,9554
12.545155408000028,20565,5713,2832
12.54819078599985,6001,592,0
12.552188710999872,2304,3088,1392
12.556165125000007,6049,3872,0
12.55918665399986,3824,672,0
12.562189217000196,0,672,0
12.566141434000201,0,6673,608
12.569188292000035,880,6913,0
12.573187524999867,4305,3984,0
12.57616483899983,4257,224,0
12.579198532000191,0,3360,0
12.583133990000078,9986,1392,0
12.587162934999924,1712,1200,0
12.590154185999836,11570,4785,7681
12.594176153000262,16019,4353,32
12.598160929000187,80,7969,7457
12.602134988000216,16291,2320,4209
12.605192218999946,3664,4881,0
12.609177336999892,0,14499,9426
12.613172742000188,20468,13011,7489
12.616192298999977,1840,18868,0
12.62016187900008,2848,14563,0
12.62412415200015,12242,3856,0
12.62813151599994,12979,2320,5793
12.63117602300008,11490,2816,0
12.63513769400015,5393,3488,0
12.638145140000233,9042,6017,0
12.64216406200012,912,192,0
12.645187533999888,256,3552,0
12.649162968999917,5521,4913,0
12.652206561000185,6401,2992,0
12.656160175999958,6225,2288,0
12.659151129999827,1264,16355,112
12.66317138300019,0,4353,0
12.666213835000235,0,11474,3888
12.670157335000113,11810,18836,11282
12.674121185999866,3072,19348,10322
12.678166433000115,9474,6353,4977
12.68217499100001,7681,27990,0
12.68615915800001,7185,1408,4337
12.689178689000073,16996,7441,3680
12.693114839999907,1648,5681,0
12.697087579000254,19204,7665,0
12.700134682000225,11170,1280,0
12.704136340999867,0,14163,3120
12.707133454000086,4129,912,0
12.711195788000168,20244,12771,3872
12.715177382000093,3632,576,0
12.719174414000008,1712,1712,10706
12.722195486000146,928,13651,0
12.725199848000102,0,1280,0
12.729168304000268,1840,6305,2608
12.732177613000204,0,3888,0
12.73620275300027,1024,4401,1024
12.740102664999995,6273,416,0
12.743116482999994,3216,3088,0
12.747147307999967,2080,3488,5745
12.751128484000219,18500,5553,0
12.754127577999952,15459,2960,0
12.758101304999855,0,5393,432
12.761148820000017,4465,3104,0
12.765139675000228,14131,5377,2112
12.769148836000113,12963,4897,0
12.772171872999934,13747,6961,0
12.776149476000228,12162,12547,0
12.780118735000087,0,656,20004
12.783099423999829,0,400,1584
12.787096936000125,10546,2192,0
12.791072468000038,9218,13187,480
12.794128975000149,1488,5345,0
12.798108961000253,17476,3568,0
12.801122980999935,10498,288,0
12.805141868000192,3600,5857,0
12.809087526999974,12050,400,4097
12.812119559000166,5665,2272,0
12.816107248000208,3696,6161,0
12.819286690999888,3776,352,0
12.82306603699999,0,7425,2768
12.826138464999985,704,5185,1376
12.83013162899988,0,7425,9634
12.833148760999848,13491,624,0
12.837119058000098,6913,12451,0
12.840110447999905,0,8161,0
12.844081626999923,5265,5505,0
12.84713942899998,0,1200,864
12.851111678000052,7361,320,0
12.854160862999834,26710,5073,0
12.85813177,12707,11698,0
12.862069076999887,8161,2672,0
12.866061674999855,19028,7281,19732
12.86910706200024,0,3328,0
12.87310292500024,2816,19444,352
12.876161793999927,16628,4241,0
12.880112591999932,8049,12787,0
12.883120587000121,4545,7729,0
12.887144702000114,16900,13107,0
12.891129620999891,7425,768,3376
12.89420185300014,7793,2064,0
12.898139116000038,2480,7201,0
12.902112665000004,10162,1184,3424
12.905136115999994,80,4097,0
12.909112136000203,10594,2880,800
12.91310822000014,10706,4721,1168
12.916124812999897,144,3808,0
12.920093043000179,0,3312,0
12.923121252999863,23477,2224,0
12.926103695000165,0,1936,0
12.930404768000244,8978,4753,6513
12.934156985999834,15363,7281,0
12.938106697999956,1232,15843,1120
12.941095376000249,0,1712,0
12.945073888000024,20549,1792,0
12.948130766999839,10498,5601,0
12.952098217000184,192,2400,0
12.95512432600026,1072,2304,432
12.959131879999859,8994,2720,2400
12.963524622000023,4865,9458,0
12.967152352000085,14051,6289,4177
12.970132445000218,13027,3360,0
12.974104618000183,8962,832,0
12.977107377000266,416,464,0
12.980126685999949,0,4641,0
12.984137794000162,9986,8402,2256
12.988096279000274,2160,2544,0
12.991111510999872,0,10770,0
12.99509460399986,4593,2928,0
12.998088953000206,2976,3504,0
13.002526342000237,13571,0,0
13.00517948400011,14083,3600,0
13.009077850000267,2832,3792,0
13.012166220999916,11522,1360,0
13.016126959999838,4465,5217,0
13.019142315999943,0,4529,0
13.023100071000044,4353,6849,0
13.026171489000262,1280,2736,1824
13.030125952000162,2016,11522,5857
13.034401232000164,2224,1024,1008
13.037152145000164,0,32,0
13.04111937000016,1584,160,2816
13.044144590000087,2640,7505,0
13.04813659399997,2080,2144,2576
13.052109563000158,1968,8706,0
13.055131072000222,256,6193,0
13.05947802799983,0,9330,0
13.062165649000235,752,12178,0
13.06614528099999,15331,33896,0
13.069188157000099,13507,5489,0
13.073124086999997,7921,5313,0
13.076184277000266,0,208,1248
13.080128430000059,12178,11122,0
13.084215596999911,1328,3392,0
13.087175317999936,4497,3888,4865
13.091134173000228,8386,3632,0
13.094178766999903,1904,4849,0
13.09816577699985,3760,2720,0
13.102100306000011,8065,1776,0
13.105182467999839,4337,2208,0
13.109143849000247,16131,5377,0
13.112152745000003,0,512,0
13.116133325000192,12819,6353,0
13.119161524999981,240,13779,0
13.123156823000045,15683,1104,5521
13.126186827999845,9650,1568,0
13.130168965999928,15011,13859,0
13.134149764000085,5553,176,1536
13.138149923000128,5153,12387,2048
13.141181074000087,0,1296,0
13.145457461000206,3664,5377,0
13.148202446000141,7825,1504,1088
13.152137828999912,5041,7585,0
13.155187403000127,1360,528,0
13.159088706000148,19796,4369,0
13.163182759999927,11730,4657,0
13.166157542999827,688,6673,0
13.170137138999962,224,22117,0
13.173418244000004,1680,1312,0
13.177136536000035,2560,2256,0
13.18017040199993,3488,5345,0
13.184119432999978,4113,5729,0
13.187171372000194,16756,768,0
13.191143584000201,21029,4209,0
13.195150505000129,9298,12771,0
13.198169027999938,22901,5153,0
13.202146301000084,17940,1888,0
13.205168435999894,0,304,5809
13.209138015999997,13843,2816,0
13.212115653000183,1504,1072,0
13.216101725000044,1232,5025,48
13.220125568000185,512,12034,5745
13.223128828999961,0,5297,0
13.227125379999961,4145,800,4113
13.23107707600002,6001,6257,2672
13.234150758999931,864,17156,0
13.237122356999862,0,14323,0
13.241124069999842,2560,3536,0
13.244146230999831,0,1200,0
13.248093096000048,8386,0,1648
13.251143986999978,1536,720,0
13.255127067000103,624,1120,1792
13.259123357000135,1024,2608,0
13.262165006000032,1376,5889,0
13.265181080000275,0,8145,0
13.269152614000177,10706,368,0
13.272180989999924,15619,4657,0
13.276156760000049,4705,1328,0
13.280093982999915,6273,3280,2096
13.283145722999961,34664,240,0
13.287124688999938,0,22389,1392
13.291102594000222,10802,8017,4145
13.294194117000188,8450,6401,0
13.298193179999998,7329,15219,2576
13.302164656000059,9538,5377,416
13.305177884999921,0,10498,0
13.309181326000271,13683,2896,1760
13.313157951999983,6049,11890,0
13.316144269000233,0,4032,0
13.320147576000181,12531,2528,0
13.32318634100011,17012,8530,0
13.327148377999947,13507,4289,2992
13.331102137000016,15123,11522,0
13.33509644500009,1312,592,5793
13.338146480999967,12034,560,0
13.342092388999845,1808,1536,0
13.345143745999849,0,256,3024
13.349169482999969,21765,208,5233
13.353153980000116,12515,2096,0
13.356145303000176,2304,6961,7569
13.360141856000155,2720,4961,0
13.364125870999942,6993,1808,8594
13.367158546000155,7057,1280,0
13.371105459999853,0,1040,0
13.37411185000019,4977,6689,0
13.378124730999843,7425,15523,304
13.38114643200015,7761,3392,0
13.385100799000156,7745,2048,0
13.389080954999827,0,2304,1264
13.392135905000032,1120,6577,0
13.396104714000103,5217,9474,0
13.399129923000146,4369,3376,0
13.403163893000055,8978,176,928
13.40615813400018,0,416,0
13.409210733000236,160,7601,0
13.413134614000228,544,6641,0
13.416180756999893,8450,432,0
13.419187650999902,0,672,0
13.423167472999921,1888,12114,0
13.427164791999985,3264,12387,160
13.430148651999843,0,1136,0
13.43410074600024,1296,2816,0
13.437196352000228,576,1744,0
13.440254601000106,0,5393,0
13.444166899000265,0,3744,0
13.447160023999913,0,1248,4449
13.451140285999827,18260,2480,0
13.454198563999853,15859,8626,0
13.45817284099985,2320,5617,0
13.462158336999892,27606,2704,0
13.465193688999989,5153,3232,0
13.46916303900025,6865,64,784
13.47219801600022,11058,8610,0
13.476186012000198,5441,5985,48
13.480169645999922,14819,10418,976
13.484160555000017,23765,1536,19012
13.488153830000101,5121,7585,1040
13.491177018000144,1616,960,0
13.494173243000205,5521,0,336
13.498142156000085,912,2848,0
13.501187902999845,16,1280,0
13.505163646000256,0,2208,0
13.508188463999886,0,528,352
13.512158528999862,3808,1136,1440
13.515160438999828,2912,1184,0
13.519176395000159,96,1840,1280
13.522182049000094,9826,592,0
13.526136788000258,0,6097,0
13.529192442999829,6033,1312,1040
13.533177756999976,8962,12771,0
13.537134795999918,688,11858,18612
13.540128916999947,0,1024,0
13.544171901000027,3328,3536,2080
13.548177821000081,16067,1696,3840
13.55217282600006,4321,6769,2976
13.55515993600011,13923,4641,0
13.5591710650001,16371,15443,0
13.563162572000238,4785,13043,0
13.56715347699992,13859,1664,5617
13.570135083999958,0,3936,0
13.573422254999969,800,13395,0
13.577173792999929,9074,1248,0
13.581155298999875,12114,3840,0
13.584189167000204,6225,8610,6737
13.588170108000213,10914,6401,0
13.59119270300016,9890,9442,0
13.595148233000145,7169,2816,0
13.598181881000073,0,352,0
13.602301090999845,480,3888,0
13.605182314000103,16,13411,0
13.609164631000112,0,5185,12883
13.612171284999931,41482,13987,0
13.61616607499991,5137,7905,24293
13.620146632999877,26886,15411,0
13.62457016999997,27958,13091,4161
13.62816209399989,7185,3824,5905
13.632125309000003,7969,3920,9074
13.635176336999848,7809,5729,0
13.639206793000085,0,5681,7905
13.642184756999995,1248,1120,0
13.646191646000261,4385,8914,8978
13.649163725000108,0,3840,0
13.653158348000034,7521,2816,4113
13.657132038999862,9250,4449,2608
13.661552586000198,1488,10898,2048
13.664241509000021,8930,14291,0
13.668152010000085,0,10610,7585
13.672145335000096,5521,15107,2656
13.675200591000248,14595,2304,0
13.679202942999837,19012,2304,5825
13.68316804799997,1264,18532,2912
13.687160146000224,9522,12531,0
13.690195349000078,4000,5297,80
13.694194083000184,27046,22565,3840
13.698159284000212,4833,11250,640
13.702149383000233,6449,2304,2592
13.706151091000265,18516,816,0
13.709190216000025,10498,10866,0
13.713550048999878,1456,0,0
13.71620758500012,3344,4145,12723
13.720185326999854,11090,6401,0
13.724169775000064,6561,11026,0
13.72816343500017,5873,9778,17460
13.73212820200024,19636,16291,1504
13.735165050999967,6449,1760,0
13.739195581999866,27062,5713,18484
13.743133752000176,144,22533,0
13.747115307000058,17236,15315,4897
13.750196870999844,3616,7729,0
13.75414640300005,240,1536,0
13.757184840000264,17652,10914,0
13.761157480999827,16,1200,0
13.764196568999978,14339,1808,0
13.768146372000047,15315,1888,0
13.771198066000125,3696,928,0
13.7751576390001,8962,3056,1248
13.779132273999949,13571,7457,0
13.782175787000142,13683,1024,0
13.786215224999978,20084,15507,0
13.79018443599989,15267,29655,0
13.793192666999857,20052,3568,0
13.797190951000175,1280,2656,3072
13.801186642000175,9106,7569,0
13.804179924999971,3744,6113,0
13.808151065999937,6849,9826,0
13.812181376999888,10226,18532,3072
13.815192663999824,3600,2032,0
13.819159148999915,2768,3840,0
13.822202753000056,12018,9074,0
13.826186389000213,0,8161,0
13.829235056000016,20068,3104,0
13.833158609999828,0,13875,0
13.83619139099983,0,8354,0
13.839215883000179,1808,3232,0
13.843203731999893,3184,8017,0
13.846152373000223,208,1760,0
13.85016200300015,20116,14451,0
13.854131485999915,9842,5633,1488
13.858134708999842,5041,2464,0
13.861169449000045,4465,1968,0
13.865107893000186,2016,544,0
13.868149646999882,4593,4337,0
13.871154033000039,0,11922,0
13.875145643999986,0,5121,6145
13.879143569000007,6529,15315,10322
13.882180143999904,4961,624,0
13.88616551799987,1232,12387,3424
13.890146283999911,240,5201,0
13.893177173999902,10098,10066,0
13.897198803000265,11378,13043,6513
13.901161156999933,880,20404,0
13.905119722000109,3104,15859,6257
13.90915922000022,38409,1360,5889
13.91216612900007,1792,7761,0
13.91616979499986,864,2816,15363
13.920178837000094,40633,15043,13747
13.923168316000101,288,688,0
13.927139116000035,688,5873,3696
13.931166377999944,2848,4561,6145
13.934175834000143,1472,880,0
13.938136015000055,6161,6433,2048
13.942139796999982,8434,1824,0
13.945189372000186,1984,5137,0
13.949156605000098,0,1280,3488
