time,emg1,emg2,emg3
0.0064852219998101646,2992,0,0
0.009575642000072548,720,1264,0
0.01256233300000531,0,1184,0
0.016479214999890246,2848,1792,0
0.019522369999776856,704,2960,0
0.023479906999909872,2608,2096,0
0.026514104999932897,7425,1712,0
0.030542491999767662,1696,7841,0
0.03353769099976489,1760,2304,0
0.037518020999868895,6145,3984,0
0.04052548800018485,192,3088,0
0.04448362099992664,5393,6129,0
0.047547918999953254,6209,3328,0
0.05151557099998172,2432,1616,0
0.05455189599979349,768,1616,0
0.05849111899988202,10482,3840,0
0.06156092799983526,0,2800,0
0.06553261299995938,2864,8962,0
0.0684970060001433,2816,1184,0
0.07247168399999282,4097,3648,0
0.07644178300006388,5297,1440,0
0.07951924799999688,6337,2256,0
0.0834586969999691,2816,1232,0
0.0865083290000257,6145,2560,0
0.09050080399993021,1040,736,0
0.09349573500003316,304,960,0
0.0964823780000188,3648,2192,0
0.10046894400011297,1808,3552,0
0.10441134699976828,2336,2192,0
0.10778310099976807,6257,1808,0
0.11081382100019255,0,1280,0
0.11487746400007381,528,7553,0
0.11786018100019646,8722,1280,0
0.12153554899987284,688,7585,0
0.12483111900019139,864,1760,0
0.12874057899989566,3104,2928,0
0.1317933020000055,0,864,0
0.13479154800006654,0,2304,0
0.1387448079999558,6881,2336,0
0.14174353599992173,304,3296,0
0.1457275100001425,2848,2016,0
0.14869909900016864,4145,1712,0
0.1527329099999406,992,1472,0
0.15572835300008592,784,1072,0
0.1597574759998679,2720,3344,0
0.16274090900014926,768,2304,0
0.1666228429999137,6865,1728,0
0.1698548800000026,1840,2000,0
0.17390759199997774,560,1104,0
0.1768082889998368,4577,1504,0
0.18097369199995228,1072,3808,0
0.18388503500000297,5809,2768,0
0.18799306900018564,9314,2304,0
0.19102941199980705,0,1120,0
0.19489833999978146,544,1008,0
0.19802840600004856,6529,1296,0
0.20179478599993672,816,2544,0
0.2050159469999926,3824,1936,0
0.20892303299979176,3216,1296,0
0.211825466999926,0,1280,0
0.21497505500019543,832,1520,0
0.21877395599994998,4241,5937,0
0.2219256530001985,464,1856,0
0.22583013599978585,4016,8738,0
0.22894610200000898,3296,1792,0
0.2328043450002042,4257,3872,0
0.2358706949999032,976,1936,0
0.23985459899995476,2560,5233,0
0.24295365899979515,1008,2448,0
0.24683074199992916,8594,1280,0
0.25072545900002297,1056,1456,0
0.25387458300019716,912,1872,0
0.25689593900006,5969,688,0
0.260775620000004,3392,2304,0
0.26478306099988913,5633,2720,0
0.26803839300009713,4385,1424,0
0.271075534999909,0,976,0
0.2748231069999747,880,2304,0
0.2778457620001973,4865,1792,0
0.2816807809999773,0,3088,0
0.28476854300015475,4865,3232,0
0.28864507700018294,3936,1696,0
0.29176855000014257,880,864,0
0.2948581750001722,176,1296,0
0.29877358200019444,4657,5873,0
0.30266988099992886,1056,2304,0
0.30576147700003276,3744,1760,0
0.30959425099990767,3728,1824,0
0.3126364640002066,1824,2048,0
0.31654651400003786,2304,1712,0
0.3196320000001833,4657,2832,0
0.3237356159997944,2336,2816,0
0.32670017400005236,5697,2048,0
0.33081103999984407,0,1040,0
0.33362664000014775,2400,2256,0
0.33775281999987783,4657,1728,0
0.34086307000006855,2512,2352,0
0.3447519229998761,5041,2208,0
0.3478695849998985,7153,2336,0
0.3507996550001735,0,0,0
0.35456036100003985,512,1280,0
0.35785350300011487,5393,2784,0
0.3608548629999859,0,2832,0
0.3647199050001291,4048,3728,0
0.3688179890000356,4721,1632,0
0.3717513940000572,976,1904,0
0.37571541599982083,1024,1904,0
0.3789061490001586,7761,2368,0
0.3819894429998385,0,3344,0
0.38579458300000624,2400,8626,0
0.38907081099978313,2192,1328,0
0.3930528949999825,1552,4353,0
0.3966841490000661,1328,1856,0
0.3999941699998999,6081,3376,0
0.40314894699986326,144,2416,0
0.40682073000016317,8177,3408,0
0.4109065349998673,1136,1232,0
0.41391329999987647,1552,1424,0
0.4178209090000564,3072,2672,0
0.4208921630001896,1232,2528,0
0.42480651999994734,5089,2272,0
0.42792234199987433,6513,1024,0
0.4319845489999352,1136,736,0
0.4348934200002077,1104,2352,0
0.43880038199995397,6145,2912,0
0.441889299000195,992,3696,0
0.4458069530001012,2560,1376,0
0.4490446529998735,2160,1888,0
0.4527949560001616,1040,1520,0
0.45593117999987953,224,1072,0
0.45988157700003285,5425,1744,0
0.4629748060001475,2304,1872,0
0.4667724089999865,6225,1856,0
0.46997731999999814,1824,1328,0
0.47385236599984637,0,4865,0
0.4768241679998937,4097,2224,0
0.4809469930000887,1088,4369,0
0.4838917309998578,4353,2304,0
0.4879996399999982,9074,1568,0
0.49096126099993853,560,1744,0
0.4948426669998298,144,784,0
0.4979391920001035,4657,2992,0
0.5019521610001902,880,2896,0
0.5048952389997794,4625,2560,0
0.5089459860000716,3840,256,0
0.5119761820001258,624,0,0
0.5148776089999956,0,3936,0
0.5189521739998781,5505,1344,0
0.5218712830001095,0,1616,0
0.5249794239998664,2304,1872,0
0.528780285999801,7025,4048,0
0.5319792049999705,208,1280,0
0.5360180650000075,1024,4305,0
0.5399794629997814,3888,1968,0
0.5430727009998009,3664,4064,0
0.5467221349999818,3216,2224,0
0.549880117000157,3232,1808,0
0.5529527409998991,0,1552,0
0.5567488090000552,3440,7169,0
0.5600364010001613,1328,2576,0
0.5639250489998631,2672,1376,0
0.5677194840000084,7681,2048,0
0.5710540879999826,1584,2176,0
0.5739388070001041,0,1712,0
0.5777891449997696,3072,7793,0
0.5808675150001363,0,2816,0
0.5846828489998188,1792,2800,0
0.5878600679998272,6001,1200,0
0.5908366509997904,0,0,0
0.5946674500000881,0,1616,0
0.5978113749997647,6193,3328,0
0.6017648679999184,1392,1200,0
0.6048903719997725,4209,3584,0
0.6086639539998941,3760,608,0
0.6116647759999978,0,1136,0
0.6147017759999471,0,1744,0
0.6185753810000278,6705,912,0
0.6217420630000561,1120,3184,0
0.6258129240000017,3536,976,0
0.6286169730001347,4433,1744,0
0.6318686270001308,0,1744,0
0.6355863220001083,0,4305,0
0.6386228920000576,6705,3152,0
0.6427247239998906,1376,2816,0
0.6458027260000563,2272,1520,0
0.6496257640001204,3648,1120,0
0.6526378150001619,576,784,0
0.6566319769999609,1312,2048,0
0.659815492999769,3360,2560,0
0.6638271689998874,560,2816,0
0.6668170970001484,8418,1968,0
0.6709572429999753,1056,1024,0
0.6739942129997871,0,1328,0
0.6779183110002123,3968,1536,0
0.6808905899997626,1536,3072,0
0.6849431089999598,3248,2768,0
0.688084957999763,5041,1056,0
0.6909418949999235,0,1536,0
0.695027029999892,3056,2880,0
0.6981640640001388,5361,528,0
0.7018760939999993,3920,3344,0
0.7057981289999589,2160,2112,0
0.7089433810001537,4769,2320,0
0.7118715040001007,0,1344,0
0.7158108089997768,16,1920,0
0.7188610389998757,6369,2048,0
0.7228444329998638,1776,4465,0
0.7259377549999044,3360,1904,0
0.7299369550000847,3888,1808,0
0.7328872570001295,0,1200,0
0.7367399740001019,2416,1616,0
0.7399483620001774,3840,3616,0
0.7439859440000873,1472,2944,0
0.7468805660000726,7761,1808,0
0.7508053179999479,1648,512,0
0.753933945999961,1248,1712,0
0.757821647000128,2816,2816,0
0.7609126460001789,768,1904,0
0.76485687100012,3184,3344,0
0.7679757750001954,5265,1696,0
0.7719002779999755,384,0,0
0.7750664559998768,2688,2528,0
0.7788528599999154,5377,2704,0
0.7820475799999258,432,1328,0
0.7859292369998911,1664,2528,0
0.788902533000055,3184,2288,0
0.7921353510000699,0,1488,0
0.7960946329999388,1728,8418,0
0.7989841140001772,4785,1664,0
0.8030732140000509,3840,4145,0
0.8067765880000479,4369,3696,0
0.809917440999925,4497,2224,0
0.8139201829999365,256,1712,0
0.816925794999861,4561,2560,0
0.8209445580000647,496,4273,0
0.8240560170002027,5281,3376,0
0.8278460729998187,7089,1040,0
0.8309226830001535,1648,1216,0
0.8339434539998365,0,1360,0
0.8378696409999975,3856,6449,0
0.8409747929999867,160,2272,0
0.8448507289999725,4897,7489,0
0.8479783470002076,5121,2064,0
0.8518605350000144,4161,3840,0
0.8549486369997794,224,2464,0
0.8588172959998701,8658,5073,0
0.8628309430000627,1504,2560,0
0.8659152119998907,3840,3760,0
0.8698189629999433,2576,1872,0
0.8728782869998213,688,1056,0
0.8767335399998046,3312,1952,0
0.8799183840001206,5889,2576,0
0.8837473359999422,2896,2912,0
0.8868518489998678,5969,2592,0
0.8908215530000234,1488,1280,0
0.8938730410000062,0,1040,0
0.8977443280000443,4000,2096,0
0.9008860250000907,1872,3408,0
0.9047084429998904,3936,3088,0
0.9077483199998824,5057,1552,0
0.910731186999783,0,752,0
0.9136969430001045,0,0,0
0.9175888999998278,2976,2448,0
0.920798214000115,288,1600,0
0.9248196779999489,4689,2336,0
0.9278823129998273,6401,2288,0
0.9318657509998047,528,4721,0
0.9349105659998713,1264,1280,0
0.9388067159998172,3296,7137,0
0.9417281320002076,144,1792,0
0.9456065640001725,2064,7505,0
0.9486107950001497,3424,1712,0
0.9527849050000441,1312,3840,0
0.9565484320000905,2256,1744,0
0.959803815000214,5809,4401,0
0.9637901950000014,608,2080,0
0.9667785169999661,9810,2960,0
0.9708935819999169,3024,1824,0
0.9739535489998161,2128,2048,0
0.9777712209997844,3888,1792,0
0.981062325000039,0,2928,0
0.983997577000082,2400,2048,0
0.9880828049999764,7089,3840,0
0.991026077999777,1008,864,0
0.9949204190002092,4465,3072,0
0.9988039300001219,5489,2160,0
1.0020303599999352,96,2272,0
1.0050749150000229,5889,1792,0
1.0090414520000195,3984,5121,0
1.012057996999829,0,976,0
1.0159965319999174,1376,2768,0
1.019070154000019,5377,2416,0
1.0229921149998518,1104,3120,0
1.0260750950001238,2816,2128,0
1.0298887509998167,3808,1376,0
1.0329016989999218,624,1200,0
1.0367832560000352,4865,1136,0
1.0399876629999198,2816,1760,0
1.0440231219999987,2816,2736,0
1.0468979239999499,6529,1536,0
1.0508351729999958,1024,4561,0
1.0539547749999656,0,1616,0
1.0580138129998886,5217,2128,0
1.061061609999797,0,3360,0
1.0649370679998356,2304,1440,0
1.068077902999903,7121,1792,0
1.0719900839999355,432,1040,0
1.0750069890000304,832,1280,0
1.0788050179999118,4833,1264,0
1.081899956000143,480,2048,0
1.0857849949998126,1488,2288,0
1.0890688079998654,4705,2352,0
1.0921070489998783,256,752,0
1.0960154630001853,4753,3856,0
1.0997707329997866,4401,1808,0
1.1029041070000858,1936,3552,0
1.106785064000178,3440,1840,0
1.1099720309998702,2544,1792,0
1.1130077940001684,256,944,0
1.1167968409999958,5889,3888,0
1.1208697860001848,2496,1952,0
1.1239277429999674,7441,4064,0
1.1279688240001633,6961,2416,0
1.1309668479998436,1568,928,0
1.1339929539999503,0,1200,0
1.1380350599997655,3584,9394,0
1.1410187970000152,1232,2592,0
1.1450565830000414,4625,5617,0
1.1488923189999696,5889,2352,0
1.1519709149997652,1712,2832,0
1.1558730649999234,1280,1392,0
1.1589667719999852,4977,2304,0
1.162888748000114,1360,3872,0
1.1659564870001304,2480,2608,0
1.1698377650000111,2544,1040,0
1.172895563000111,768,816,0
1.1767972399998143,1312,1104,0
1.179922413999975,3776,2656,0
1.1838330239997958,2048,2640,0
1.1868104780000976,6337,2048,0
1.1907514979998268,1872,1120,0
1.1937408069998128,672,1504,0
1.1976450399997702,3376,2128,0
1.2006793750001634,992,2816,0
1.2047693499998786,2048,1248,0
1.2079217830000744,5889,2496,0
1.2109194820000084,464,0,0
1.2147723200000655,3504,2912,0
1.2187804390000565,5681,2048,0
1.2218085370000153,64,2512,0
1.2248669760001576,4849,3056,0
1.228778562000116,7057,4337,0
1.2318173359999491,352,848,0
1.2357938509999258,0,7681,0
1.238882169000135,6145,3104,0
1.242796098999861,800,2336,0
1.2458802309997736,1024,2080,0
1.2497756500001742,3632,320,0
1.2527867859998878,768,1120,0
1.2566277679998166,2304,1456,0
1.259782229999928,4753,3920,0
1.264226346000214,3840,2272,0
1.2667352079997727,6929,1792,0
1.2709072359998572,800,768,0
1.2740046929998243,2080,1984,0
1.2780367189998287,3504,1136,0
1.2811134560001847,528,1888,0
1.2848605789999965,4097,2208,0
1.2881266579997828,5969,2304,0
1.2919551770000908,96,1536,0
1.2948972439999125,3152,2096,0
1.2988547489999291,6305,1904,0
1.3019741250000152,960,2608,0
1.305745105999904,3168,2288,0
1.3089431650000733,6001,3552,0
1.3119586769998932,0,2064,0
1.3159481590000723,1584,6929,0
1.319038594000176,4545,3984,0
1.3229412649998267,3584,3392,0
1.3268267489997925,2784,1904,0
1.3299828909998723,4609,2848,0
1.3331191620000027,16,1840,0
1.3369162459998734,1568,8274,0
1.3409793900000295,2832,2096,0
1.3439660389999517,3888,3184,0
1.3478500309997798,7937,1792,0
1.3509597629999917,2352,2288,0
1.3548452850000103,480,1952,0
1.3580721789999188,6257,2416,0
1.3609559020001143,0,2096,0
1.3650327129998914,4129,6401,0
1.3681929879999188,6113,1312,0
1.371962376999818,4353,3328,0
1.3758171069998753,2080,2272,0
1.3789363569999296,7073,2304,0
1.3827771729997949,784,3024,0
1.386087779999798,2768,3088,0
1.3899652159998368,3248,144,0
1.393100081999819,1376,2480,0
1.3967577170001277,1024,2272,0
1.4000533260000338,5281,3040,0
1.4040136079997865,1472,2752,0
1.4069271489997845,7313,2512,0
1.4110394959998303,1024,736,0
1.4140488349999032,0,1024,0
1.4170337770001424,2928,1824,0
1.4210815350002122,1376,6145,0
1.4249934380000013,2672,2048,0
1.4281288319998566,7601,3680,0
1.431180915999903,0,1072,0
1.4350478569999723,656,2208,0
1.4379893919999631,6385,2224,0
1.4420039530000395,0,3344,0
1.4450123880001229,5025,3088,0
1.448988848999761,5153,2304,0
1.4520964799999092,256,1568,0
1.454992940000011,0,1424,0
1.458896101999926,4945,3760,0
1.4619414130002042,16,2784,0
1.4658602899999096,3072,1232,0
1.4689547849998235,3600,1440,0
1.47277608100012,32,6481,0
1.475921420999839,1872,1024,0
1.4798513699997784,5089,2672,0
1.482832629999848,848,2816,0
1.4867302600000585,5025,2352,0
1.4898294439999518,4129,2128,0
1.4936959609999576,1376,1328,0
1.4967045359999247,3296,1744,0
1.5007673589998376,1264,6513,0
1.50389302900021,4353,2144,0
1.507888168000136,10258,3888,0
1.5109246410002015,0,784,0
1.513917415999913,0,0,0
1.5176436520000607,4193,2224,0
1.5209043969998675,192,3840,0
1.5248625149997679,5569,2272,0
1.5279307269997844,6113,1136,0
1.5318361149998054,480,8177,0
1.5349472419998165,0,1792,0
1.5389094189999923,5105,1632,0
1.5419130790000963,1632,2736,0
1.5459031020000111,3328,2112,0
1.548754499000097,3424,2064,0
1.5528959809998923,352,768,0
1.5557594890001383,672,1376,0
1.5598354889998518,7025,2816,0
1.5629928489997837,2016,2928,0
1.5667804469999282,3712,1872,0
1.5700098319998688,3056,1568,0
1.5739018089998353,480,2464,0
1.5769143570000779,2816,1808,0
1.5809193830000368,1168,2832,0
1.5840108950001195,5409,2000,0
1.5880601200001365,6753,2864,0
1.591149803999997,256,1584,0
1.59488337699986,0,1328,0
1.5981396950001,9890,2368,0
1.601091260999965,528,3120,0
1.6051388609998867,7409,3760,0
1.6089719139999943,7089,1856,0
1.6121069770001668,496,1792,0
1.6150638789999903,992,1552,0
1.6189495150001676,9170,3632,0
1.6228791690000435,1040,3552,0
1.6261354829998709,3824,1712,0
1.630036071000177,2848,1408,0
1.6331453289999445,336,1792,0
1.6361814480001158,0,1792,0
1.6400720249998813,3360,4849,0
1.6431080130000737,2560,2544,0
1.6469432570002027,5377,5617,0
1.650032875999841,3584,1280,0
1.6540124879998075,3696,3136,0
1.658002629999828,2560,2304,0
1.6611345179999262,1792,3072,0
1.6650517160001073,3904,2320,0
1.6679964670001937,5793,1936,0
1.6712225109999963,0,2288,0
1.6751203119997626,1280,4369,0
1.6788933090001592,7249,1984,0
1.6821330799998577,2928,4097,0
1.6860038270001496,1776,1904,0
1.6890008079999461,3552,2672,0
1.6921812460000183,0,816,0
1.6960616970000046,768,2304,0
1.6990782699999727,4961,2816,0
1.7031191340001897,1936,3984,0
1.7060524250000526,1616,2848,0
1.70997136699998,3328,4993,0
1.7129830290000427,0,1040,0
1.7168186610001612,944,2064,0
1.7199251379997804,3696,2704,0
1.7240444710000702,3296,2848,0
1.726958593999825,6481,3136,0
1.731078862999766,1488,656,0
1.7340016909997757,256,1648,0
1.7380466569998134,3520,3008,0
1.7410458039998957,2240,3568,0
1.7450845130001653,6353,2816,0
1.7481842030001644,6337,1584,0
1.751116273000207,0,992,0
1.754889791000096,3408,3552,0
1.75878566900019,5473,1248,0
1.7619368699997722,1072,3584,0
1.7658049699998628,3136,1936,0
1.7689486310000575,2384,2208,0
1.7719707090000156,0,880,0
1.7758887820000382,256,5841,0
1.7789805200000046,5873,2816,0
1.7827643539999372,2304,3680,0
1.7858405570000286,2640,1856,0
1.7897667050001473,4353,5169,0
1.7927149560000544,480,1264,0
1.796653378999963,1168,6497,0
1.7999184489999607,3328,2592,0
1.8038767739999457,6577,4833,0
1.8079386770000383,7729,3856,0
1.8108960660001685,3376,1856,0
1.8149218389999078,256,1744,0
1.8179444150000563,5009,2832,0
1.8219210990000647,752,3152,0
1.8249593249997815,6977,3296,0
1.8289175949998935,5425,2640,0
1.8318259279999438,1280,2000,0
1.83489117299996,0,2144,0
1.8389546250000421,3760,6305,0
1.8419879759999276,16,3248,0
1.8459761389999585,3680,1760,0
1.849020370999824,4353,1840,0
1.852812098999948,0,848,0
1.8559738140002082,1904,2992,0
1.8599252250000973,6497,1520,0
1.863088290000178,2128,3328,0
1.866837915999895,3248,1392,0
1.8699886760000481,2992,2032,0
1.874013709999872,0,1600,0
1.8769392489998609,6161,2704,0
1.8810184829999343,2272,2112,0
1.884074635000161,2928,2800,0
1.888024840000071,5729,1840,0
1.8911924340000041,2176,1376,0
1.8940440010001112,0,1360,0
1.898138759000176,9826,3040,0
1.9011057749999054,736,1984,0
1.905118100999971,6785,3808,0
1.9089989710000737,5201,1392,0
1.9121251649999067,912,2480,0
1.9158243890001359,1232,2048,0
1.9191426659999706,5841,3840,0
1.9230458420001924,1328,2000,0
1.9261324489998515,1872,1200,0
1.929924273999859,3376,2320,0
1.9329545199998392,688,1136,0
1.9367899660001058,1968,2384,0
1.939951143000144,4305,6657,0
1.9440290789998471,1024,2480,0
1.9469499379997615,6689,1504,0
1.9510639509999237,1632,1248,0
1.9541141139998217,768,1328,0
1.9580183650000436,4945,672,0
1.9611264159998427,784,3200,0
1.9649135159997968,2848,2224,0
1.9679886849999093,6113,1712,0
1.9720204340001146,256,544,0
1.9750929880001422,752,2096,0
1.9788655829997879,6145,1488,0
1.9819994469999074,2224,3376,0
1.985996023000098,1792,2592,0
1.9891403349997745,4369,1728,0
1.9929980390002129,192,864,0
1.9959683870001754,1568,400,0
1.9998485060000348,3952,3632,0
2.0031215760000123,1840,4000,0
2.006827644000168,3232,1024,0
2.0100289030001477,2864,2544,0
2.0132283849998203,0,1056,0
2.0168977980001728,3824,6113,0
2.021003411000038,2288,3440,0
2.0240787110001293,3792,3600,0
2.0279979580000145,8434,2832,0
2.0311287620002076,2304,1648,0
2.034821334999833,480,1024,0
2.0379662679997637,5377,2368,0
2.042035468999984,1200,1808,0
2.0449618480001845,6385,3616,0
2.0488431670000864,5425,2224,0
2.0519269520000307,352,1328,0
2.055841674000021,2496,1024,0
2.0589437859998725,4273,3280,0
2.0628446890000305,896,3120,0
2.0659226580000905,1504,1456,0
2.0698438029999124,2304,992,0
2.072908799999823,912,1488,0
2.0767978570002015,1456,2144,0
2.0799434639998253,4449,2016,0
2.0837496580002153,1936,3456,0
2.086756768000214,5217,2128,0
2.090709565999987,416,496,0
2.0937140350001755,480,2624,0
2.097926393999842,3088,2512,0
2.100960958000087,2512,1840,0
2.104926191999766,4513,1824,0
2.1078612930000418,6657,2464,0
2.111810389999846,1168,496,0
2.1149450500001876,208,688,0
2.11870738000016,5617,1808,0
2.1219760919998407,2160,3568,0
2.1258906839998417,4945,3424,0
2.128947860000153,3808,1792,0
2.131897835000018,0,1552,0
2.1358654079999724,944,5025,0
2.1389979740001763,5489,2240,0
2.1428588889998537,2080,5585,0
2.146828959999766,1072,2096,0
2.1498164889999316,5345,3616,0
2.1529641100000845,0,1200,0
2.156852394999987,32,2464,0
2.1600288069998896,4849,3632,0
2.1638790890001474,2032,2816,0
2.1669943789997888,5681,1792,0
2.1710565530001986,2048,1712,0
2.174002089000169,832,1712,0
2.1780700320000506,5713,2976,0
2.1811337700000877,224,2208,0
2.1849052190000293,4449,3344,0
2.1881764129998373,5857,1392,0
2.1920363849999376,0,1984,0
2.1950654960000975,0,112,0
2.1980382570000074,4865,2496,0
2.2018796649999786,0,3376,0
2.2050243959997715,4961,3072,0
2.2089324749999832,4865,2224,0
2.212148773000081,512,1296,0
2.21597938900004,768,3120,0
2.219115259999853,7937,1952,0
2.222981615000208,464,1968,0
2.226135314000203,2416,2256,0
2.2299326030001794,3648,2128,0
2.232912732999921,0,1008,0
2.235975106999831,2144,1632,0
2.2399909509999816,9650,5041,0
2.243203970000195,0,3936,0
2.2469773980001264,3024,1200,0
2.25007264199985,3520,2048,0
2.253978780000125,1120,1696,0
2.257044584000141,2944,1392,0
2.2611593490000814,736,6049,0
2.2642054349998944,1792,2784,0
2.2681433890002154,7265,5729,0
2.2712151850000737,288,768,0
2.2749792690001414,160,1264,0
2.278228408999894,4577,1120,0
2.282056675000149,608,2144,0
2.28516380200017,2976,3024,0
2.289121529000113,3904,1776,0
2.292113370000152,0,1488,0
2.295882487000199,1888,1280,0
2.299041668999962,6257,3040,0
2.3029509970001527,208,2960,0
2.3061953490000633,1632,2256,0
2.309946541000045,3744,2960,0
2.313043986000139,864,2336,0
2.3167953219999617,1056,624,0
2.320187885999985,6801,3376,0
2.3239672280001287,1248,2048,0
2.327021887999763,7473,2304,0
2.331097623000005,2224,1120,0
2.333927438000046,0,1632,0
2.337810845000149,3872,1856,0
2.3409400529999402,2352,3376,0
2.3448493770001733,2528,2304,0
2.3479608940001526,7537,2608,0
2.3518419510000967,256,1424,0
2.354962938999961,1024,1616,0
2.358818589999828,4849,2720,0
2.3619746379999924,608,1744,0
2.365813062000143,4897,2864,0
2.3689647870000954,4849,1872,0
2.372762585000146,944,1440,0
2.3758276710000246,704,1312,0
2.379750508000143,6657,3808,0
2.382742480000161,1072,3584,0
2.386677698999847,3760,2096,0
2.3898191570001472,3248,3904,0
2.3929174360000616,0,848,0
2.3967144130001543,8177,4016,0
2.4009438980001505,2560,2288,0
2.403982111000005,3632,3936,0
2.4079648299998553,7937,1360,0
2.410946762000094,2416,1456,0
2.4139774380000745,0,1312,0
2.4179754289998527,2720,7425,0
2.4210387769999215,528,3536,0
2.4249591470002088,5009,2224,0
2.4279959380000946,5521,2304,0
2.4319484809998357,0,5377,0
2.434955297000215,752,1984,0
2.4389140940002108,5121,2480,0
2.4420033229998808,0,2304,0
2.445815899000081,2288,1824,0
2.4490533100001812,4865,2768,0
2.452175702000204,0,1376,0
2.45589486200015,0,1200,0
2.459014525999919,6193,1808,0
2.462030281999887,0,1584,0
2.465970367999944,3120,5601,0
2.46926193399986,3808,1744,0
2.473069230999954,2624,2048,0
2.4767868660001113,1664,1536,0
2.481190340000012,5665,3072,0
2.483899756000028,1424,2304,0
2.4869895289998567,5121,3280,0
2.490928092000104,2976,1088,0
2.493971336999948,0,1584,0
2.4978268079998998,5169,1872,0
2.5009730579999996,5377,3536,0
2.50491292300012,3648,2288,0
2.5079448110000158,6449,2160,0
2.5110545930001535,0,1328,0
2.514841692000118,80,5281,0
2.517831729000136,4977,2736,0
2.5217602170000646,96,4561,0
2.5247678390001056,4048,3168,0
2.528715458000079,5121,2160,0
2.531749968999975,0,1072,0
2.5357147909999185,2160,3216,0
2.5387501330001214,5793,2480,0
2.542727494999781,784,2016,0
2.5457565570000042,2992,1600,0
2.549691791999976,1440,768,0
2.5527342850000423,1936,848,0
2.555734926999776,336,800,0
2.5597035450000476,4785,3184,0
2.562726254000154,1728,2816,0
2.5667066450000675,7393,5121,0
2.569739138999921,2464,2208,0
2.573717932999898,2768,3072,0
2.577726200000143,4225,1440,0
2.5807318870001836,2160,3376,0
2.5847123120001925,3840,2320,0
2.587759472000016,6961,1312,0
2.591725408000002,768,1280,0
2.5947545979997813,1168,4513,0
2.598729879000075,3984,1632,0
2.6028111470000113,0,2512,0
2.6056595830000333,3600,2416,0
2.608719843000017,5905,2928,0
2.6129260080001586,768,1200,0
2.616091874000176,3280,2992,0
2.6196715330002007,5233,2864,0
2.6229270240000915,2224,3328,0
2.6267114769998443,2336,976,0
2.6299409309999646,5585,2512,0
2.632761169999867,0,816,0
2.636646475999896,368,752,0
2.639756405999833,5073,2608,0
2.6437049810001554,3504,2528,0
2.6467132070001753,4945,1776,0
2.650685634000183,2144,2832,0
2.653735147000134,512,2048,0
2.658030128000064,3984,2416,0
2.6609394590000193,736,3072,0
2.6649017419999836,3248,2976,0
2.668004106999888,4977,16,0
2.6716818159998184,272,1408,0
2.674943634000101,1408,2256,0
2.6788413730000684,5953,1744,0
2.6818124360002003,496,2208,0
2.6860094290000234,3696,1376,0
2.68898914600004,4657,3232,0
2.6920966439997756,0,2032,0
2.6959263109997664,2048,6401,0
2.699870277000173,5857,2368,0
2.7032637419997627,3184,3872,0
2.7070554540000558,2656,800,0
2.7100838810001733,4561,3168,0
2.714079698000205,1024,1104,0
2.7170283169998584,5169,2144,0
2.720958971000073,3616,2048,0
2.7242103739999948,2720,3680,0
2.728007861000151,7713,2416,0
2.7311762360000102,864,1552,0
2.734934272999908,512,1696,0
2.738175258999945,5217,2496,0
2.741039002999969,0,2576,0
2.745172191000165,4016,7473,0
2.7488309830000617,5585,1744,0
2.752045280999937,2224,1744,0
2.7558685140002126,1312,2304,0
2.759049569000126,6305,2160,0
2.7621421089997966,64,2992,0
2.765994335999949,5521,4177,0
2.769983090000096,3568,2000,0
2.7731000329999915,1136,2240,0
2.777066472000115,832,1936,0
2.7801559479999014,5905,4097,0
2.7839551940001,1808,2512,0
2.7870498779998343,5953,2400,0
2.7911332429998765,2352,768,0
2.794075548999899,320,1296,0
2.7981293789998745,10514,2736,0
2.8010529190000852,1264,2848,0
2.80489863899993,2416,3376,0
2.808250821999991,7521,3184,0
2.8119799969999804,800,992,0
2.815193374000046,528,1376,0
2.8191052189999937,5825,2080,0
2.8221994539999287,1904,2784,0
2.825983952000115,4897,1792,0
2.829188853999767,3840,1776,0
2.8328973299999234,608,1504,0
2.8361946670002,768,992,0
2.840018584000063,5841,3072,0
2.843087808999826,1792,2512,0
2.8470973459998277,1840,2048,0
2.850064360000033,3344,2304,0
2.8539302760000282,512,1040,0
2.857115123999847,1424,4369,0
2.8611247059998277,2752,3152,0
2.8640773150000314,4817,3488,0
2.8680454479999753,8434,3472,0
2.8712450180000815,1696,1456,0
2.874957941000048,144,1008,0
2.8780452070000138,5121,1232,0
2.8819615090001207,0,1424,0
2.885227160999875,5521,2912,0
2.8891059190000306,5873,2672,0
2.8921344919999683,0,800,0
2.895073684000181,0,1264,0
2.899004522999803,4865,2272,0
2.902201435999814,1136,2544,0
2.9059416670002065,4449,2544,0
2.9090203689997907,4369,1968,0
2.9120527380000567,0,784,0
2.915999511999871,3120,3488,0
2.919895059999817,5489,2320,0
2.923013856000125,1184,3136,0
2.926921900999787,2784,1328,0
2.9300284729997657,2304,1312,0
2.9330133620001106,0,1824,0
2.936863988999903,1328,6097,0
2.9400077330001295,2816,4048,0
2.9438440779999837,2976,4145,0
2.9477256270001817,10226,3344,0
2.9507828870000594,2288,1200,0
2.9538949190000494,0,144,0
2.9580493869998463,2000,7841,0
2.9607815270001083,0,3168,0
2.9649177770002098,1792,2192,0
2.9680614710000555,7089,2144,0
2.9710459719999562,0,560,0
2.9750035329998354,4545,3616,0
2.9789373240000714,4145,2448,0
2.981972365999809,2064,2384,0
2.9859213740000996,3184,2464,0
2.989015958999971,5889,2800,0
2.992879905999871,400,1200,0
2.996060567999848,848,352,0
2.9989755510000577,6001,2592,0
3.0029585910001515,2816,4257,0
3.0061636460000045,944,1344,0
3.0099494699998104,5601,2928,0
3.0133115879998513,0,1104,0
3.0170050830001856,1072,1520,0
3.0201768530000663,3488,2272,0
3.0242021439999007,2080,3840,0
3.0272675100000015,7377,1904,0
3.0310633119997874,1632,3728,0
3.034270159999778,256,1792,0
3.0382278600000063,3760,5649,0
3.0411455489997934,1024,2768,0
3.045206290999886,5169,2864,0
3.0488705150000897,5457,2080,0
3.0520387050000863,496,2144,0
3.0561151309998422,1232,1280,0
3.0591842829999223,7425,3152,0
3.0621781999998348,0,2896,0
3.0659514089998083,1424,5777,0
3.069169494000107,3472,2800,0
3.072952062999775,912,4097,0
3.07611271199994,1712,2064,0
3.080017006000162,4625,6001,0
3.0832891690001816,0,2720,0
3.087177935999989,2720,1712,0
3.0901581919997625,1840,2656,0
3.094131936999929,336,448,0
3.09723622599995,2128,2320,0
3.1009456420001698,3632,3152,0
3.1043937509998614,2368,2992,0
3.1081589260002147,8610,2672,0
3.111190016999899,1104,1312,0
3.1149076669998976,0,608,0
3.1180107790000875,5601,2080,0
3.1221055129999513,896,3728,0
3.1250725840000086,5121,3008,0
3.128965813999912,5793,720,0
3.1320952820001366,2576,1856,0
3.1350614779998978,0,1136,0
3.1390934729997753,4785,1744,0
3.1419830869999714,0,688,0
3.146120160999999,3792,2544,0
3.1490377609998177,5969,3296,0
3.1530757559999074,272,1904,0
3.156103567000173,1808,3472,0
3.160073241000191,4369,1792,0
3.163096009000128,608,2704,0
3.167008679999981,2192,2816,0
3.1701113829999485,3824,1232,0
3.174091709000095,400,928,0
3.1770837849999225,3840,2752,0
3.181020677000106,4257,2832,0
3.1842146779999894,3360,3328,0
3.1881646679998994,6705,3744,0
3.1912362479997682,608,1792,0
3.1943028830000912,0,1456,0
3.198216683999817,3952,6913,0
3.2010703340001783,80,3344,0
3.2049438369999734,6001,3328,0
3.208053994999773,5345,1520,0
3.2119429750000563,240,5841,0
3.2149442350000754,0,1792,0
3.2189555330000985,4929,2208,0
3.2219714920001934,0,2608,0
3.2250688770000124,4785,2624,0
3.2289723019998746,6609,4561,0
3.2319527149998066,384,1104,0
3.2358792479999465,4705,3280,0
3.2397796589998507,5409,3056,0
3.2428276629998436,2288,2304,0
3.246805497999958,2192,2720,0
3.2499333199998546,4177,2960,0
3.2539546580001115,448,1472,0
3.2567836319999515,3616,1200,0
3.260934738999822,3328,2352,0
3.26403776799998,2160,2736,0
3.26794446599979,7009,2896,0
3.2709871359998033,1792,576,0
3.2741212089999863,0,1264,0
3.278047377999883,9586,4129,0
3.2811077930000465,768,3664,0
3.284930470999825,6353,3840,0
3.2889764749997994,5713,1536,0
3.292076613000063,1952,1280,0
3.295873310999923,400,2368,0
3.2989057499999035,8177,2304,0
3.3021930360000624,0,3040,0
3.3059901110000283,3056,1792,0
3.309183752000081,4689,2128,0
3.3131577559997822,0,5841,0
3.316320112000085,1520,3472,0
3.3200531900001806,5825,2224,0
3.3232334959998298,0,2800,0
3.326883437000106,1936,4097,0
3.330220138000186,5121,2304,0
3.333080984999924,0,1456,0
3.3369690280001123,1184,1040,0
3.3400716559999637,3056,3520,0
3.3440434620001724,5361,5457,0
3.3471034549997967,4657,1728,0
3.351236362999771,3776,2608,0
3.3541667190002045,0,1408,0
3.358030695999787,2576,2320,0
3.3611435719999463,256,2544,0
3.365074879000076,6497,3840,0
3.368296784999984,6929,2160,0
3.372033800999816,848,4753,0
3.3752853149999282,64,2080,0
3.3790501190001123,5665,1808,0
3.382071850000102,1136,3104,0
3.3860352080000666,4785,2816,0
3.3891213249999055,3440,1568,0
3.3929667140000674,0,672,0
3.396251427000152,2160,1792,0
3.40003310100019,6769,1360,0
3.403151079000054,1136,3360,0
3.407047880999926,1280,1792,0
3.4102103680002074,2816,2272,0
3.4132385469997644,0,1088,0
3.417249277999872,3712,4209,0
3.4211081039998135,3840,3632,0
3.424115281000013,4513,3792,0
3.4281666950000727,5489,1392,0
3.431205632000001,1808,896,0
3.4342159510001693,80,1744,0
3.4380116110000927,6753,5297,0
3.4412637260002157,752,3168,0
3.445185634000154,5889,5377,0
3.4489440140000625,6577,2784,0
3.452187917000174,3280,2736,0
3.455464763999771,768,2112,0
3.4592738370001825,12387,2848,0
3.4629191369999717,1024,2656,0
3.4660938209999586,2656,2224,0
3.4700796480001372,4000,2096,0
3.473188847000074,720,1168,0
3.4761891580001247,0,1904,0
3.4801274569999805,8930,3648,0
3.4832606730001316,432,3040,0
3.487215761999778,2672,4016,0
3.491007639000145,2768,2224,0
3.494088073000057,2816,2816,0
3.4978827270001602,2928,1680,0
3.50103282200007,3152,3440,0
3.5049285479999526,3280,3136,0
3.5080592720000823,7409,2800,0
3.511061531999985,0,1632,0
3.5150208230002136,4417,3616,0
3.5187250620001578,5537,2048,0
3.521745174999978,2160,3184,0
3.5256990510001742,2208,1696,0
3.5287454389999766,4097,2464,0
3.5317550599997958,0,1856,0
3.5357346330001747,1840,4833,0
3.538764828999774,6449,1024,0
3.542740022000089,1872,3840,0
3.5467828330001794,2528,1248,0
3.5497788819998277,4321,2288,0
3.5527921930001867,0,1712,0
3.557084691,0,7409,0
3.5600125020000633,7521,2352,0
3.564011348999884,1280,3360,0
3.56671108799992,4433,2368,0
3.5710726520001117,2736,1504,0
3.5737685829999464,544,1024,0
3.5780914930001018,4097,2560,0
3.5811308920001466,1744,2896,0
3.5850745030002145,5985,3280,0
3.5880892039999708,7009,3056,0
3.591963674999988,944,5073,0
3.594972546000008,0,1280,0
3.598820347000128,4785,1392,0
3.601969693999763,0,2368,0
3.6051426499998342,5137,2992,0
3.609092098000019,7937,3056,0
3.612048808000054,288,2208,0
3.6159623120001925,4865,2896,0
3.6198384489998716,5617,2304,0
3.623012823999943,1024,3328,0
3.6271575179998763,1808,2128,0
3.630151081999884,4097,2352,0
3.6331771790000857,0,1472,0
3.6371701729999586,448,4865,0
3.640223542000058,4177,3056,0
3.644119266999951,2768,7473,0
3.6472061979998216,5121,2144,0
3.651242524999816,6065,3584,0
3.6541846639997857,960,768,0
3.6580847720001657,2144,7329,0
3.661141038000096,240,3392,0
3.66502820300002,5393,7601,0
3.6681940690000374,6401,944,0
3.6720134930001223,0,592,0
3.675232407999829,1184,1600,0
3.6790201140001955,4929,1824,0
3.6821782329998314,1104,2304,0
3.6860311400000683,3680,2352,0
3.6891491860001224,3840,2848,0
3.6929874530001143,80,992,0
3.696248792999995,3008,2448,0
3.6999971830000504,6113,3072,0
3.703155718999824,1040,2816,0
3.7071228290001272,1280,992,0
3.7101856829999633,3936,2816,0
3.71322952599985,0,1504,0
3.7170414639999763,1632,6369,0
3.7201272570000583,5169,3504,0
3.7241951850000987,4689,4881,0
3.7279767320001156,6177,3088,0
3.7311987859998226,2736,2128,0
3.735100497000076,320,1696,0
3.7381227480000234,5329,3184,0
3.741275979999955,192,1936,0
3.7452481079999416,5233,2816,0
3.7490074540000933,6817,1792,0
3.752257947000089,784,2016,0
3.7553220549998514,176,1488,0
3.759259922000183,9554,3072,0
3.7621584250000524,0,2992,0
3.766046974999881,5233,2608,0
3.7691710160002003,5265,2272,0
3.7729913980001584,0,368,0
3.776137225000184,2576,1952,0
3.7800021980001475,4577,1904,0
3.783071241000016,624,3760,0
3.786954243999844,1824,2416,0
3.79008302200009,3120,2160,0
3.7931623819999913,0,1072,0
3.7970441870002105,2304,7105,0
3.8001390829999764,4865,2304,0
3.8040405589999864,4145,4032,0
3.8078816799998094,6177,2544,0
3.8109691280001243,3184,1600,0
3.814837627000088,768,1440,0
3.8178649309998036,8001,2064,0
3.8209010330001547,48,2480,0
3.8250818020001134,4561,6401,0
3.8289447629999813,5169,1280,0
3.831924593000167,1616,2304,0
3.8351096020001023,864,1168,0
3.8389016510000147,7937,2144,0
3.841900219999843,672,3184,0
3.8460263229999327,4945,2656,0
3.8500240200000917,3424,1408,0
3.8530031569998755,1712,2592,0
3.856959495999945,272,1296,0
3.8599352350001936,3824,3328,0
3.8639506949998577,1200,3584,0
3.866977788999975,2288,2608,0
3.871049657000185,1216,1792,0
3.8739401779998843,0,1280,0
3.8779040640001767,3664,1504,0
3.881054400999801,5681,4945,0
3.8850506399999176,2624,2816,0
3.888259516999824,7425,2032,0
3.892044833,1424,1104,0
3.8953002090001974,1568,1808,0
3.8989580399997976,5457,1536,0
3.902224694999859,1072,2592,0
3.9060844669998005,3216,2192,0
3.909315136999794,4609,1488,0
3.913200174999929,352,224,0
3.9160993830000734,1280,1440,0
3.920131011000194,6369,2640,0
3.923252245000185,1376,3184,0
3.9270701959999315,4865,1024,0
3.930231496000033,3744,1616,0
3.9341093520001778,768,6433,0
3.937270224999793,3600,1264,0
3.940975528999843,2080,4785,0
3.944293554000069,3216,3120,0
3.948241448999852,8498,4177,0
3.9512287819998164,1104,1872,0
3.955138132999764,1632,2416,0
3.9590221190001103,6385,1536,0
3.9622878710001714,496,2848,0
3.9659810449998076,4097,1584,0
3.969102550000116,1056,912,0
3.973057942000196,1008,1536,0
3.976048154000182,2256,2816,0
3.9801252030001706,3488,2592,0
3.9832057509997867,912,1728,0
3.9870342359999995,1632,2384,0
3.990125798000008,2816,2320,0
3.994030868000209,720,1488,0
3.9971462250000513,2000,2656,0
4.001174980000087,5057,2048,0
4.004180171999906,1824,2032,0
4.0082095359998675,7537,1904,0
4.011316641000121,1392,1008,0
4.015013605000149,0,1104,0
4.018237273000068,4353,1808,0
4.021351002999836,80,2656,0
4.025169115000153,7489,4289,0
4.0290358570000535,6097,1488,0
4.031988901000204,1888,2256,0
4.035089773999971,0,2656,0
4.039141591999851,4705,1632,0
4.042321091999838,528,2016,0
4.046224659000018,4417,864,0
4.049082974000157,4273,2128,0
4.052295171999958,0,992,0
4.056061612000121,2832,2656,0
4.059959453999909,5201,1552,0
4.063203674999841,704,2480,0
4.067052200000035,3248,2048,0
4.070112232000156,5041,2784,0
4.073239060000105,0,1136,0
4.0770323480001025,544,8674,0
4.080148222999924,5745,2304,0
4.084020934999899,1984,2880,0
4.087153746999775,6257,1616,0
4.091067439000199,1584,5697,0
4.094111964000149,0,784,0
4.09800840600019,5265,848,0
4.101079281999773,1136,3472,0
4.104907138999806,3728,3008,0
4.107937309000135,7985,2992,0
4.110952156000167,768,0,0
4.114874448000137,336,5265,0
4.117990222000117,4321,1872,0
4.122050009999839,0,4000,0
4.1250455489998785,3184,2256,0
4.128979104999871,6401,2048,0
4.132066269000006,1232,1168,0
4.136008354999831,0,1008,0
4.139050072999908,5681,1744,0
4.141934735000177,0,2384,0
4.146010856999965,4593,3952,0
4.149049144999935,3920,1104,0
4.153037094999945,0,3792,0
4.156031649999932,2464,1952,0
4.16000497999994,5425,2448,0
4.163034127000174,1072,2416,0
4.167011154000193,3696,1488,0
4.16995821699993,2480,1248,0
4.174056800000017,0,5537,0
4.17686397999978,3840,1088,0
4.181074396999975,3824,2048,0
4.184199610000178,2064,2608,0
4.188156270000036,9714,3376,0
4.191234298999916,976,1280,0
4.194368240000131,0,864,0
4.198179473999971,7089,3552,0
4.202057523999883,1392,1264,0
4.2052841089998765,5009,2816,0
4.2091758940000545,6673,2016,0
4.212156394999965,688,1584,0
4.215279159000147,0,1520,0
4.219255721000081,3904,1120,0
4.222265472999879,928,2208,0
4.2262402390001625,6721,2048,0
4.22930210200002,4609,720,0
4.232972196999981,0,944,0
4.236253003999991,2816,3328,0
4.240060473000085,4865,2912,0
4.243339001000095,2048,2832,0
4.247072924999884,1024,1712,0
4.250164833999861,1824,2304,0
4.253240995999931,0,1008,0
4.25724252100008,4945,3776,0
4.261025571000118,4833,3376,0
4.264145768000162,3600,3824,0
4.268073045000165,6033,2864,0
4.271183274000123,1952,848,0
4.274177324999982,0,1424,0
4.278225374000158,1568,1040,0
4.2811982459998035,528,2352,0
4.285268687000098,5713,2832,0
4.288366640999811,6305,1792,0
4.2920913419998215,768,5905,0
4.295135681999909,0,752,0
4.29902849500013,4849,2320,0
4.302105566000137,1440,1904,0
4.3062585560001025,7137,3504,0
4.309208434000084,5329,3472,0
4.313100439000209,592,672,0
4.316106329999911,2384,2320,0
4.320084754000163,6913,3056,0
4.32330181999987,1648,2416,0
4.327124468999955,3408,2032,0
4.3302297199998065,2752,2048,0
4.33417604899978,768,1184,0
4.337279083999874,4353,2016,0
4.341054484999859,2336,2256,0
4.344120836000002,3424,2704,0
4.34804788800011,7953,2816,0
4.351064459000099,752,1344,0
4.354176898999867,0,752,0
4.358235879999938,5793,4273,0
4.361105389999921,672,2640,0
4.3651200069998595,6209,4048,0
4.368879911000022,5889,1504,0
4.372026900000037,1520,2064,0
4.375052226000207,0,1024,0
4.378985236000062,2928,1952,0
4.382076375999986,176,1744,0
4.3859900749998815,8338,2816,0
4.38896207300013,4769,1072,0
4.392874698000014,752,7505,0
4.395865260999926,768,1632,0
4.39983309399986,3328,1888,0
4.402825865000068,0,2144,0
4.407033817999945,2064,2592,0
4.410076773000128,3840,2128,0
4.4130775970002105,0,928,0
4.417235275000166,752,2224,0
4.419831846999841,5217,2512,0
4.424127833000057,1232,6177,0
4.427172096000049,5521,1104,0
4.4311537730000055,2576,5489,0
4.434088330000122,0,1056,0
4.4379822709997825,3328,944,0
4.44106777099978,2304,2352,0
4.445001992000016,2528,3088,0
4.4479994680000345,7201,1968,0
4.452131237999765,2272,1024,0
4.455133935000049,0,1024,0
4.458912771000087,3952,1168,0
4.462145356999827,768,2048,0
4.465954227000111,3600,1696,0
4.4690397839999605,5745,2224,0
4.472944629999802,272,512,0
4.476091572999849,4529,4241,0
4.480011015999935,4000,3376,0
4.483144532000097,0,2304,0
4.486136416000136,1680,2304,0
4.490063327999906,4609,5217,0
4.493259818999832,496,1024,0
4.497064082000179,400,6769,0
4.500163628999871,5137,3024,0
4.504218320999826,1200,6753,0
4.5071838150001895,5889,2048,0
4.511270203000095,5969,3328,0
4.5144037240002035,736,1776,0
4.518055803000152,7441,2816,0
4.521387827000126,1296,688,0
4.525192091000008,2016,4193,0
4.528989273000207,5889,2096,0
4.532163123999908,3072,1952,0
4.53540061700005,624,1040,0
4.539324806999957,8450,1280,0
4.542224396000165,0,1104,0
4.546178028000213,2304,2304,0
4.549411982000038,4032,2096,0
4.553153474999817,48,7713,0
4.556149181999899,0,2816,0
4.559925192999799,4881,3088,0
4.563087575999816,2304,3472,0
4.5668250190001345,1280,1344,0
4.569987281000067,3760,2096,0
4.574038650000148,560,768,0
4.577113855999869,2512,2512,0
4.58089579999978,3936,1552,0
4.584154257000137,2048,2704,0
4.587936279000132,6161,2160,0
4.591240469999775,3600,1280,0
4.594959689000007,496,848,0
4.59822160900012,4048,2736,0
4.601367931999903,0,2208,0
4.60515403699992,4032,6113,0
4.608231425000213,6737,2272,0
4.612165776999973,4721,3600,0
4.615357825000046,0,1248,0
4.619075077000161,5889,640,0
4.622182023999812,1024,2080,0
4.626105955000185,2464,1456,0
4.629174990000138,6465,2080,0
4.6331361610000386,912,944,0
4.636037456999929,0,1024,0
4.639243578999867,4881,2576,0
4.64320630300017,3152,3840,0
4.646153282999876,1792,0,0
4.650120764999883,5025,784,0
4.653277334999984,528,1072,0
4.657065224999769,1104,848,0
4.660274538000067,4273,2272,0
4.663994396999897,928,2880,0
4.667276783000034,3072,1536,0
4.671065003999956,3584,1280,0
4.674173968000105,0,1024,0
4.677861495999878,4257,1024,0
4.680979240999932,5105,2960,0
4.684859986999982,3344,3104,0
4.687913799999933,8338,1488,0
4.691831518000072,1696,832,0
4.694894925999961,1760,2208,0
4.698816328999783,4097,2192,0
4.702099528999952,1200,2912,0
4.706091390999973,4000,3360,0
4.709123722000186,4769,1648,0
4.712094065000201,0,656,0
4.71608661099981,3136,1760,0
4.71999581099999,5377,1856,0
4.723135442000057,2192,3424,0
4.727155823999965,2592,2256,0
4.730070840999815,3600,1792,0
4.733115672000167,0,960,0
4.737025533000178,768,7969,0
4.740168393000204,4849,2544,0
4.744143407000138,4577,5233,0
4.747109520999857,3632,1808,0
4.75115288500001,2528,9826,0
4.754092734000096,544,1424,0
4.758162478000031,2304,6913,0
4.761241366999911,256,1792,0
4.765068924999923,5377,6577,0
4.76841006199993,7745,2304,0
4.772151388000111,4593,4449,0
4.775317074000213,0,2304,0
4.779035781999937,6241,48,0
4.782077341999866,0,3568,0
4.785213502999795,5233,2928,0
4.789275673999782,8145,3696,0
4.792224816999806,672,1520,0
4.796256007000011,1840,5345,0
4.800035514999763,4609,2832,0
4.8031914080002025,848,2896,0
4.806239490999815,912,1200,0
4.81079623200003,4657,4401,0
4.814284804000181,912,1552,0
4.817034752999916,0,5377,0
4.820104294999965,5169,2816,0
4.823981991999972,816,2928,0
4.827117842999996,3424,1600,0
4.830964120999852,2176,928,0
4.834125747000144,352,1680,0
4.838015938999888,2208,2016,0
4.841087535000042,3568,2864,0
4.845036408999931,3808,1776,0
4.847970187000101,6577,2960,0
4.8519085060002,128,848,0
4.854943159999948,1824,2096,0
4.858875841000099,5521,2464,0
4.861902509000174,512,2544,0
4.8658556159998625,5233,2512,0
4.86888217600017,5857,2768,0
4.8718926360002115,496,0,0
4.875861388999965,160,7457,0
4.8788637719999315,9154,1584,0
4.8828406699999505,1712,2816,0
4.88588840500006,2816,1760,0
4.889799605000007,4209,4961,0
4.892930468000031,992,688,0
4.896814789000018,16,1184,0
4.899818941999911,6401,2288,0
4.903812425000069,256,2896,0
4.906833484999879,1936,1136,0
4.9108117999999195,2784,1760,0
4.913806052999917,416,496,0
4.9178279709999515,2672,2464,0
4.920850264999899,1584,1840,0
4.924826911999844,1808,3440,0
4.927838959999917,5377,1792,0
4.931814688000031,208,1024,0
4.9347878339999625,1200,1696,0
4.938816604999829,4497,3088,0
4.941920022999966,0,2640,0
4.946109181999873,5537,2416,0
4.948835806999796,4673,1664,0
4.951811941999949,0,432,0
4.955819804999919,1760,2432,0
4.9588450169999305,6401,1712,0
4.9630790870000965,1280,6241,0
4.966129685999931,3184,2112,0
4.97005398400006,5297,2320,0
4.973096431000158,0,336,0
4.9772563430001355,832,1136,0
4.980030734000138,5521,2544,0
4.983105759999944,0,2048,0
4.987133941000138,6433,4497,0
4.991111878000083,2112,1328,0
4.994069717000002,2016,2144,0
4.998126291000062,3824,1120,0
5.001059395000084,6721,2992,0
5.00503393200006,3120,3328,0
5.008212286999878,8530,2048,0
5.012011575000088,1616,896,0
5.014966564000133,0,1584,0
5.018293953000011,5649,1232,0
5.022198772000138,3872,3744,0
5.026107136000064,2784,2080,0
5.029170769999837,5137,2112,0
5.032387990000188,48,560,0
5.036193934000039,816,3248,0
5.039394704000188,8642,1792,0
5.043186922000132,288,2768,0
5.046210681000048,3056,1792,0
5.050266758999896,5393,1872,0
5.05327403299998,160,1312,0
5.057178193999789,0,768,0
5.060146322000037,8546,2848,0
5.064110462999906,1968,3184,0
5.067232977000003,3152,2016,0
5.071091484000135,1920,1280,0
5.074138768000012,0,1312,0
5.07727841499991,4321,1856,0
5.081399688000147,6593,3632,0
5.085070498999812,2832,4097,0
5.088192460999835,9954,2896,0
5.091221042000143,0,1072,0
5.095269077000012,624,6577,0
5.098229616000026,4561,1680,0
5.10226208999984,0,4145,0
5.10536478999984,4016,2336,0
5.109133165000003,5729,3872,0
5.112330446000215,1536,528,0
5.116111487000126,1728,1328,0
5.119239969999853,7505,1792,0
5.123220472999947,256,3264,0
5.126410771999872,3072,1792,0
5.130151010000191,3760,1344,0
5.133340581000084,208,1232,0
5.137254602000212,512,1648,0
5.140275462999853,6081,1680,0
5.144277795000107,1200,3104,0
5.147273395999946,3392,2672,0
5.1510722500001975,1648,544,0
5.154330383999877,352,1024,0
5.1581550780001635,3344,1648,0
5.161203685000146,5361,1632,0
5.1651303479998205,3968,4465,0
5.168282573999932,9682,2464,0
5.172167547999834,2464,1072,0
5.175239292999777,848,1552,0
5.1791472670001895,2816,3040,0
5.182249203000083,112,2560,0
5.186155977999988,2816,2560,0
5.189200669000002,3232,2000,0
5.193180655000106,16,2016,0
5.196235007999803,752,1632,0
5.20009019400004,5073,2992,0
5.203186133000145,1712,2304,0
5.2070337780000955,3984,368,0
5.210128816000179,3328,2496,0
5.213189087000046,0,0,0
5.216961316999914,0,1296,0
5.220136756000102,8466,2928,0
5.223235387999921,880,2080,0
5.227113416000066,3984,2960,0
5.230968863999806,3072,1504,0
5.234119523000118,400,1824,0
5.238002675000189,2320,3152,0
5.241121428000042,3856,2848,0
5.244961845000034,4385,2304,0
5.247948748999988,7873,2096,0
5.251920408999922,2272,992,0
5.254902313000002,512,2208,0
5.259024486999806,4016,912,0
5.262182526999823,2656,3072,0
5.266092579000087,4129,2272,0
5.2691452190001655,5457,2256,0
5.273109900999771,1024,1552,0
5.276085975000115,1552,1744,0
5.2801340719997825,4080,1296,0
5.283098030000019,992,3424,0
5.287007734999861,1520,128,0
5.290053111999896,4833,1792,0
5.2941683029998785,912,1360,0
5.29705762399999,512,2720,0
5.300953942999968,2992,2112,0
5.304146629000115,1792,1280,0
5.308155319999969,8930,1616,0
5.311235706999923,2416,1248,0
5.314185098000053,0,1312,0
5.318380243999854,5649,1744,0
5.321431978999954,512,3824,0
5.325184661000094,5345,2896,0
5.329196658000001,3856,1280,0
5.332328859999961,1024,1744,0
5.336048794999897,656,1792,0
5.339329259999886,7473,1520,0
5.343057907000002,912,1056,0
5.346132560000115,4145,2640,0
5.349990010000056,3232,1504,0
5.353260933999991,496,1648,0
5.356217418000142,496,2784,0
5.360223187999964,10194,2160,0
5.364115961000152,1456,2912,0
5.36726186199985,2704,1520,0
5.371147521999774,1440,2128,0
5.374342358999911,0,656,0
5.377264564000143,608,1216,0
5.381195041999945,6257,6513,0
5.38425448199996,432,2160,0
5.388224172999799,9266,1760,0
5.391400059999796,816,784,0
5.395103441000174,0,1712,0
5.398293447000015,4481,3232,0
5.402136951000102,320,2064,0
5.405163085999902,6001,3088,0
5.4092119629999615,9778,2032,0
5.412383021000096,1584,1392,0
5.415304043000106,0,2144,0
5.419319099999939,4097,6849,0
5.422506581000107,3312,2064,0
5.426206095999987,6305,4337,0
5.429292940999858,0,3088,0
5.433213026999965,7313,256,0
5.436250699000084,3216,2848,0
5.44021764099989,14003,3616,0
5.443340028999955,9682,2000,0
5.447157645000061,4593,3392,0
5.450217221000003,8482,2016,0
5.454243669999869,3136,2560,0
5.458151628999985,27446,1280,0
5.461443503999817,23557,3184,0
5.465224711999781,11490,1008,0
5.4690918299997975,18228,4097,0
5.4723049290000745,15011,1808,528
5.4762039000002005,464,1936,0
5.479329420999875,13907,3088,0
5.483221010999841,9570,5729,0
5.486330233999979,4305,2240,0
5.490182590000131,3936,4032,1360
5.494206624000071,400,1712,0
5.497217932999774,3376,4305,0
5.501303638000081,7857,768,0
5.504318295999838,1168,2816,0
5.508118552999804,13363,2240,0
5.511205436000182,4449,1200,0
5.515139255000122,224,6913,368
5.5181825630002095,0,1040,0
5.522105313999873,4545,4353,0
5.5251585229998454,1968,4016,0
5.5291098769998825,5377,6929,0
5.53219924699988,1536,1904,0
5.536147807999896,7921,4801,0
5.5399179050000384,12531,1872,0
5.543027388000155,1040,3296,0
5.546999090000099,2048,2288,1456
5.550006854000003,5489,976,0
5.55418270600012,7825,5665,0
5.557185386000128,3120,1264,0
5.561088074000054,2032,5393,0
5.565015656000014,6129,1584,0
5.568157673999849,3056,4064,5905
5.5721258730000045,0,5921,768
5.575159479999911,736,1024,0
5.57811453100021,0,0,0
5.582108694999988,11250,4353,624
5.586088719000145,2016,1392,0
5.589200677000008,6113,1952,0
5.59305932999996,1440,1072,0
5.59622699800002,13059,1520,0
5.6000101509998785,16884,1984,0
5.603198449000047,3248,3136,0
5.607276232000004,28022,4609,0
5.611120296000081,9954,1520,0
5.6142798380001295,2384,848,0
5.618128238999816,5233,5537,0
5.621161158000177,9954,1392,0
5.624442928999997,0,1792,0
5.628272246000051,8450,6097,192
5.631403456000044,0,5537,0
5.635280465000051,43002,10226,4369
5.639383266000095,24309,5649,3632
5.64318707800021,768,3584,0
5.646507964000193,5345,1952,0
5.650084117000006,3664,864,0
5.653282027999921,5601,880,3504
5.657257262999792,2256,2656,0
5.660232677999829,8658,5377,0
5.664164633999917,112,4577,0
5.667364449000161,8434,2400,0
5.671244487999957,18004,4433,0
5.674927956999909,7713,1200,0
5.678262992999862,672,3552,288
5.682200016000024,5297,2288,1536
5.686137458999838,13299,784,0
5.689309971000057,33912,10498,0
5.693262427999798,48,5457,4032
5.697112515999834,10386,1040,0
5.700123217000055,6385,1648,0
5.704283870999916,1408,1072,3184
5.708241761999943,3088,1744,528
5.711377339000137,10738,5217,0
5.715138098999887,10594,3616,0
5.719055872999888,1456,2352,2384
5.722400937000202,11986,1184,0
5.72638893400017,5137,1104,3840
5.7292067449998285,0,3088,0
5.733258811999804,6177,1696,0
5.737328330999844,1920,4673,2928
5.740243452999948,23157,2832,0
5.743358292999801,5953,0,0
5.747439335999843,8658,1792,2480
5.751385160000154,2304,2720,448
5.755276495000089,6961,7153,0
5.758340978999968,688,2832,0
5.7623864679999315,36232,16211,1280
5.766266937000182,15715,3440,0
5.76927374800016,5473,4897,0
5.773194977999992,6209,6961,0
5.776285506000022,1424,5617,0
5.780155186999764,15907,3248,1504
5.783375506000084,0,5233,0
5.787249791999784,1088,14355,0
5.79022972499979,0,16628,0
5.794186892000198,0,736,4529
5.798258481000175,3296,1312,3888
5.801289729000018,1136,9730,0
5.805146846999833,23285,2320,1792
5.809091828999954,336,2480,5201
5.812151252000149,5489,672,0
5.8160819059999085,51516,800,0
5.819164984000054,256,832,0
5.823053942000115,4337,1024,0
5.826238334000209,13299,2064,3952
5.8302362039999025,9362,3360,2368
5.834049663999849,9986,1296,1280
5.837939488999837,592,7985,0
5.841000952999821,6817,5729,0
5.844916522999938,2096,2080,0
5.848257904000093,6401,7441,3376
5.852147522999985,65535,7985,192
5.856131135999931,16035,1840,624
5.860032051999951,2752,2304,3568
5.863247352000144,47979,672,0
5.867225766000047,9074,6769,2304
5.871221018000142,25606,1312,2720
5.875155633999839,16660,18596,3728
5.879135890999805,27846,3856,13491
5.882179586999882,1792,880,0
5.88608840400002,0,512,0
5.889232929000173,3744,4705,0
5.89319593800019,1968,864,0
5.896072324000215,0,1792,0
5.899181321000015,16980,528,0
5.903299365999828,4145,5073,16
5.907154508000076,10706,2976,0
5.910272633000204,0,1216,3920
5.914070101000107,816,528,0
5.917129364000175,928,6449,0
5.921332612999777,10562,1888,1984
5.9253148150000925,2720,10498,352
5.928339418000178,12755,1440,976
5.9323342600000615,0,3632,0
5.936255983000137,21077,2176,3840
5.9392867970000225,11890,1664,4321
5.9432650369999465,0,20485,0
5.947160720999818,2640,3648,5649
5.950348140000187,31863,3120,5473
5.954394429999866,23445,14547,0
5.958368176000022,65535,3904,880
5.962316739000016,22453,10770,0
5.965266855000209,768,8946,1520
5.969330101000196,21365,11266,2928
5.973288595000213,0,10834,6865
5.976309739000044,0,7633,0
5.980206488000022,432,1984,1024
5.984364490000189,7681,3312,9810
5.988163868999891,4865,880,2064
5.9915429500001665,18164,9650,0
5.995357990999764,29367,2816,0
5.99828702800005,13507,6961,0
6.0022747920002075,24293,10338,0
6.006262116000016,256,1600,0
6.009432371999992,20228,3968,0
6.0132580159997815,10338,2608,0
6.016319750000093,11522,1392,0
6.020154511999863,0,6689,0
6.023481176000132,544,3840,3488
6.027437051000106,1616,6801,2512
6.031221023999933,6401,12002,0
6.035264292000193,3648,2736,5729
6.038511874000051,10162,9010,5905
6.042462963000162,6945,2608,9266
6.0463238600000295,1392,336,0
6.0491572860000815,0,0,0
6.052455081000062,0,4353,6417
6.056316643000173,7649,768,0
6.059446421999837,9426,5473,0
6.063419022999824,3280,5297,1584
6.067361335999976,19636,2832,3296
6.071235264999814,8113,1792,1632
6.074276615000144,0,1392,720
6.0782908340001995,0,9762,768
6.081254797999918,2304,816,0
6.085309830999904,0,1792,1184
6.088306587999796,9778,8690,0
6.092336258000159,4097,768,0
6.095387184000174,0,1488,0
6.098280358000011,6241,1984,0
6.102225874999931,9986,3952,1232
6.106174782999915,6673,4449,880
6.110112884000046,13091,2064,0
6.1132294459998775,288,3536,0
6.117165725000177,14051,5377,1120
6.120317686999897,0,3328,1344
6.124242291999963,544,12066,7025
6.128013849000126,480,1280,0
6.131139635000181,2832,10914,0
6.135049438999886,5121,1632,2592
6.139012674999776,1680,11522,1552
6.143122175999906,4625,496,3600
6.146243582999887,32055,784,0
6.149167782999939,0,608,0
6.1531327040002,0,4529,0
6.156190601000162,35512,752,0
6.160026504000143,864,464,0
6.163195772000108,2736,784,5217
6.1671589550001045,7681,912,0
6.170065223000165,2912,10146,0
6.174256446000072,4064,10418,2032
6.178236860000197,4801,3168,4993
6.182135001999995,944,6305,1520
6.186101210999823,4321,8161,3936
6.189201320999928,11186,19940,7777
6.193186493000212,10338,10370,0
6.196203275999778,0,4801,0
6.2000518489999195,2448,6545,0
6.204265581000072,0,2288,1488
6.207448189999923,16083,1696,0
6.210347577999983,0,9058,0
6.214211685000009,10002,11090,3440
6.218408436000118,3696,4641,0
6.222206097999788,768,2112,352
6.225482715999988,1600,2352,4177
6.229377055999976,17828,2400,3040
6.233249925000109,15395,992,0
6.236428094000075,1072,5297,160
6.240318455999841,1792,16852,5665
6.24442463000014,256,9458,2176
6.2482299469998,10002,10210,0
6.2513589710001725,16644,2560,0
6.255368806000206,0,8866,0
6.258407952000198,0,3616,0
6.262393040999996,6657,1104,8562
6.265451389000191,9074,11810,0
6.269415686999764,1168,8546,672
6.273226840000007,10994,9010,0
6.2763063540000985,800,2304,7697
6.280230551999921,13603,7521,11506
6.28434914699983,0,7137,0
6.287468720000106,7473,2080,0
6.2914078079998035,17668,3744,0
6.294477302999894,15475,3424,0
6.298166375000164,560,4865,0
6.302109181000105,1280,864,1280
6.305495707999853,2560,12547,5073
6.30938346999983,9074,1360,16
6.313197492000199,6161,1504,0
6.316449902999921,2528,1296,0
6.320111954999902,14291,688,0
6.323362813000131,1888,1104,592
6.327218956999786,528,4225,0
6.331125800999871,8594,1280,768
6.334400179000113,1136,2976,0
6.338302519000081,6945,5985,0
6.341417760999775,1536,9970,0
6.345230847000039,224,4385,5521
6.3491917189999185,7505,624,8145
6.352413699999943,8674,736,0
6.356097770999895,0,1184,12002
6.359257654999965,672,13059,4865
6.363296891000118,6641,4817,0
6.367202683999949,14051,7345,4689
6.3713362690000395,6001,2752,10290
6.375278286000139,2576,6065,11938
6.379151661999913,17332,6449,4353
6.3823420499998065,15891,7521,6545
6.386269620999883,960,2352,3856
6.390100672999779,10098,976,0
6.393298125000001,5329,3328,0
6.397126597999886,672,1792,0
6.400339433999761,17764,1312,256
6.40419321599984,14259,9666,0
6.40817978899986,15123,1200,2048
6.411266570999942,1024,144,0
6.415174950000164,2224,7345,0
6.418250998000076,768,12018,0
6.422281913000006,1664,4016,0
6.426056750000043,0,4689,1776
6.429091917999813,5105,2480,0
6.432987900000171,2480,2896,0
6.436046747000091,7905,6897,0
6.440014579000035,8161,1344,11026
6.443127292000099,0,4897,0
6.447072410000146,8402,3120,0
6.451226822000081,10562,608,2912
6.454214466999929,5825,7425,0
6.458178106000105,4497,4737,0
6.461261327000102,272,4449,576
6.465269550999892,13811,496,0
6.469121369999812,8914,15107,3056
6.472210677000021,12595,2352,0
6.476171273000091,4625,4369,7025
6.480047200000172,34216,12146,1296
6.484144588000163,9474,1328,0
6.487339923000036,32615,1792,0
6.491353984999932,928,3088,0
6.494423817000097,18100,5841,0
6.498243690999971,20452,6065,0
6.501493094000125,256,576,0
6.505320933999883,13139,6577,0
6.509337431999938,14227,1744,0
6.512475816999995,7953,11074,0
6.516188106999834,3696,944,4897
6.520187495999835,944,5665,2304
6.523307003999889,0,5009,3328
6.527349127999969,11522,10674,0
6.53036887799999,240,1760,0
6.534380355999929,5729,5361,0
6.537472985000022,0,9234,6913
6.541244644000017,800,17956,0
6.544470705000094,352,22453,0
6.54836341400005,2320,38569,0
6.5523756890002005,4513,5921,2576
6.556477588999769,4097,5777,4529
6.560113202000139,27574,8482,9730
6.56330847900017,4817,1696,0
6.567212813999959,13299,1616,0
6.570256249000067,11042,7057,0
6.574398039999778,3280,6737,0
6.577493703000073,19284,2128,0
6.581179095000152,20388,1040,0
6.585374002000208,10498,7185,1408
6.589254916999835,18788,6081,8626
6.592324209999788,992,1072,0
6.596330630000011,0,2336,0
6.599422547999893,2672,7281,0
6.602484168000046,0,1760,0
6.606479042000046,12258,6049,1296
6.610147089999828,9074,4097,0
6.613461672000085,0,688,0
6.617334078000113,0,2320,1024
6.620421244999761,10018,2912,5505
6.624459659999957,15443,8962,0
6.628366817999904,3536,4849,0
6.632194399000127,3856,18788,5377
6.635281710000072,1760,1456,0
6.639155357000163,4097,3328,0
6.6423157549997995,0,1760,2240
6.6463869989997875,22805,368,0
6.649331399999937,2800,768,0
6.65328162600008,1280,3248,0
6.6563398359999155,14131,768,0
6.660243663000074,14851,2784,0
6.663437706999957,2336,2240,0
6.667358219000107,6865,3040,5297
6.671400462999827,22421,6401,0
6.6744427630001155,5121,6161,0
6.678406628000175,13315,880,0
6.6812610319998385,1520,592,0
6.685451372999978,10914,5889,9362
6.689290538000023,11026,1456,7153
6.693214945999898,2304,384,17844
6.696206202000212,0,5169,0
6.699283540000124,0,1072,0
6.703217654000127,800,7825,0
6.706240796000202,5121,3312,0
6.710195949000081,5985,7425,0
6.714093741999932,12307,13811,0
6.717242991000148,11522,10562,0
6.721155698000075,8674,3504,0
6.724154501000157,6577,5937,0
6.728053958000146,5713,32007,0
6.7310981969999375,768,1072,0
6.735029579000184,10402,7041,0
6.739153016999808,2272,1504,0
6.742290136000065,5793,12963,0
6.7462883039997905,8177,5649,3328
6.750102974000129,4177,1200,0
6.753135324000141,0,7217,0
6.756307447999916,4000,800,0
6.760099310999976,3440,10498,256
6.764274714999829,3872,736,12611
6.767238410000118,0,3776,9922
6.771290722999765,768,3840,0
6.774038878999818,4097,1136,0
6.778246559999843,1568,3680,0
6.781332528999883,6641,1792,0
6.785200258999794,8562,1696,0
6.7891977790000055,14227,2048,144
6.792412323999997,7137,2336,0
6.796391360000143,0,2416,6753
6.800309768999796,6561,1200,1552
6.803380210999876,0,4945,4337
6.807424231999903,2240,15395,0
6.81141644399986,1312,22949,7777
6.814333330999943,16500,4833,0
6.8184734490000665,2016,11970,4257
6.822453833000054,14643,2384,2736
6.826436681999894,6401,2816,0
6.829362602999936,11010,880,0
6.8332722909999575,6113,3216,0
6.836512305999804,2736,1712,0
6.840271537999797,4641,1648,16
6.844249067999954,1024,1280,3840
6.847469960000126,928,2144,2640
6.8514606749999984,6305,4577,0
6.854395556999862,560,1696,0
6.858450539999922,0,8786,144
6.861476977000166,0,1824,0
6.864388659999804,0,5937,0
6.868478573000175,1968,4849,0
6.8723560630000975,10306,1120,0
6.875336207000146,352,3840,0
6.879330828000093,14051,8674,1872
6.882353066000178,496,4529,0
6.886291232000076,0,8434,4401
6.889399538999896,7153,784,0
6.893270281999776,5009,48,0
6.8965647660002105,10322,1792,0
6.90028722299985,7425,4625,0
6.904273016999923,7425,2064,5473
6.9075422420000905,9090,272,1376
6.911314351999863,4449,8177,0
6.914334139999937,656,2816,0
6.918364315999952,0,4497,0
6.921531612999843,6209,6257,432
6.925302158999784,5777,944,0
6.929237077999915,11026,1472,432
6.932482772000185,7441,3888,0
6.9354814749999605,0,864,0
6.939249063999796,0,3584,0
6.9424965899997915,3072,4097,0
6.946438701999796,4064,6993,0
6.949447330000112,0,2048,0
6.952529893999781,352,2816,0
6.956516319000002,15363,6721,3888
6.960210339999776,256,6433,3536
6.964266099999804,768,1104,672
6.967468747000112,5105,3056,0
6.971411259999968,9378,8946,0
6.974462736000078,0,10146,0
6.978233959000136,112,17156,0
6.9813649890002125,8482,2656,1136
6.98538089900012,1552,16131,928
6.989180382000086,2528,4529,0
6.992270785000073,0,8370,3120
6.996165424000083,11218,3440,0
6.999314573999982,7425,7265,48
7.003297911000118,23477,5297,0
7.0071620389999225,3840,4273,0
7.010260043000017,9474,2848,0
7.013314286999957,0,880,0
7.017132144999778,0,256,0
7.020129781999913,1376,2656,0
7.024033415999838,2656,4881,0
7.02705202900006,1360,848,0
7.030939752999984,4545,4705,0
7.034298131000014,0,2480,0
7.037316606999866,2336,5409,0
7.041215672999897,9298,7441,0
7.0443226150000555,0,4945,0
7.048238532000141,640,672,0
7.0513233219999165,2656,5569,0
7.055205229999956,25974,2048,0
7.058217488000082,4337,2176,0
7.062312735999967,13571,1568,0
7.065329630000178,30471,2704,0
7.069315101000029,4929,1824,0
7.073251685999821,4321,3840,1936
7.076203888999771,0,8017,0
7.080109300000004,768,3360,4961
7.083237498000017,672,7633,0
7.087114672000098,1312,8706,0
7.090449678999903,5921,1280,0
7.094427877999806,7937,2208,0
7.09747365200019,4353,6561,0
7.101485629999843,2992,7841,0
7.104412732000128,768,12419,0
7.108473118999882,4625,7425,0
7.111580842999956,2912,720,0
7.115290425999774,2304,4048,0
7.119244410000192,1088,2624,8690
7.122444869999981,0,752,0
7.125482497000121,0,2144,0
7.129397214000164,11906,816,0
7.133222633000059,2272,816,4481
7.136455894999926,2304,1680,0
7.139376295000147,0,2416,0
7.143506421999973,2112,3248,3632
7.1472720390002,10482,1680,0
7.150310764000096,4016,3232,0
7.154401647000213,6737,1168,0
7.157353838999825,0,5889,4625
7.161360830999911,48,9986,0
7.164494078000189,1792,5889,0
7.168450671999835,9554,3232,0
7.171501548999913,0,20965,0
7.175252057999842,1024,512,0
7.178522046000126,10402,1136,0
7.182313342999805,0,15027,6257
7.186249606999809,3824,400,8642
7.189314047000153,11890,3280,0
7.193318586999794,2144,560,400
7.196458551999967,4193,1280,0
7.200283027999831,2224,1104,0
7.20357428699981,5297,6865,0
7.207490200999928,1888,7729,0
7.210355556000195,2544,3808,0
7.2142817769999965,1504,2640,0
7.217541746999814,0,1744,0
7.220443808999789,0,720,0
7.224526532999789,3104,11698,0
7.228417701000126,3472,1008,0
7.231496874000186,304,1024,0
7.235421092999786,1104,1808,0
7.2383821049998005,15651,9298,0
7.24238787000013,832,496,0
7.245534306000081,2000,16692,0
7.249513204999857,1888,15587,7937
7.252570899000148,400,192,0
7.256446115000017,22773,8802,7313
7.26054411899986,23557,10578,6465
7.264484330999949,25046,10962,0
7.268257645000176,24549,19476,6881
7.27243917099986,17460,10402,0
7.276218149000215,1808,8962,3488
7.27942670099992,10146,2816,0
7.283268896000209,7281,2816,2384
7.286310404999767,3984,7009,0
7.290250862999983,2656,2784,0
7.293349932000183,4801,896,0
7.297209763999945,4353,3856,0
7.301114030000008,10162,896,0
7.304241732999799,4689,1792,0
7.308062313999926,6497,928,48
7.3111023380001825,0,5025,0
7.314066433999869,0,656,0
7.317962088000058,912,2704,0
7.321034107999822,1968,3568,0
7.32519440499982,5617,5905,0
7.3282470580002155,10674,4673,3216
7.332260417999805,9282,17940,0
7.336300621000191,0,1408,3424
7.3393369109999185,0,9314,2304
7.343171045999952,1312,768,0
7.346260349000204,624,9954,0
7.350058411000191,0,8049,2976
7.353274209000119,3760,14083,1520
7.357241533999968,5393,2960,5697
7.361265539000215,10386,5457,48
7.3643217700000605,416,6145,0
7.368311479000113,3328,17716,8818
7.3722889390001,0,160,256
7.375206196999898,4545,3120,0
7.378294364999874,0,9826,0
7.382151637999868,2032,7169,2016
7.386228183000185,5105,1712,0
7.389402037999844,11778,5665,0
7.3933274850001,2176,4048,0
7.3972175660001085,3808,800,2304
7.400390930999947,0,3040,1888
7.404379066999809,48,7393,0
7.4074913419999575,4097,2208,0
7.4114176580001185,6097,4273,0
7.41433678500016,9474,1232,0
7.418395386000157,192,11058,0
7.421536722999917,10754,23157,0
7.425486012999954,9954,6657,10098
7.4293433839998215,5201,16644,432
7.432529515000169,0,1904,0
7.4365518579998025,4097,9986,2640
7.440196596000078,6321,11506,0
7.4443608759997915,9746,1776,3632
7.447334129999945,5713,1024,0
7.450422206999974,0,7969,0
7.454406102000121,0,4881,0
7.45750100899977,5473,2560,0
7.46147408600018,7425,1216,7089
7.46451336400014,0,1760,0
7.468351839000206,6881,1184,240
7.4724188559998765,8466,2640,18596
7.475433205000172,2656,2976,0
7.479364429999805,7329,9730,112
7.483476405000147,5089,2048,0
7.486493125999914,24309,1792,0
7.490347302999908,6033,1248,1232
7.4934039089998805,0,8978,0
7.497242775999894,720,5617,0
7.501395515999775,256,2672,2704
7.504578910999953,2896,2480,1024
7.5083844719997614,7937,2960,3888
7.512352628999906,4577,624,0
7.515404599999783,1856,2720,0
7.5185709689999385,0,4193,0
7.5223861210001814,1824,7025,5345
7.526524694999807,18436,2928,0
7.529576247000023,9426,6929,0
7.533321211999919,14403,320,0
7.537367936999999,15619,1216,0
7.540384061000168,4257,2096,0
7.5444636719998925,9970,13763,0
7.547417365999991,5745,14467,0
7.551311234999957,5633,11618,0
7.5545344030001615,368,1056,0
7.558493232999808,2816,6225,512
7.562411869999778,9058,6561,2288
7.565523523000138,272,5793,0
7.569411131999914,2864,2512,0
7.572341882999808,16,3936,0
7.576295236000078,896,1024,4193
7.5802331400000185,6145,2592,1824
7.583355160999872,4977,2128,0
7.587248878000082,2080,2880,0
7.590361298000062,4080,1424,0
7.594278410999777,2032,1632,0
7.597337454999888,0,1776,0
7.601285797999935,6945,4625,5121
7.60522802100013,4945,544,7249
7.609127291999812,15283,5265,3184
7.612214928999947,2528,2816,9314
7.616080036999847,3376,2048,0
7.619113175000166,1536,4337,0
7.623061665000023,6033,7761,0
7.627270698999837,7329,16900,3168
7.630307932000051,240,23509,0
7.634060397000212,5889,24101,208
7.638306138000189,4609,7345,7185
7.642261271999814,16,8658,5473
7.6453461370001605,0,17668,0
7.649188068000058,14947,4865,7937
7.653180253999835,4865,16371,880
7.656360242000119,3744,1280,0
7.660159820999979,0,1616,544
7.663178714999958,0,2864,1824
7.666423714999837,0,1504,80
7.670327102000101,4080,2400,0
7.6743464010000935,5857,2128,0
7.677266502999828,2048,1312,0
7.680398354999852,0,4705,0
7.684496455000044,2304,6641,0
7.687579126999935,2224,1632,0
7.693531750000147,3056,4657,0
7.695133824000095,11074,608,0
7.6982441469999685,2864,2976,0
7.701284157999908,0,3792,0
7.705148682000072,0,1648,0
7.708181017999777,0,5073,0
7.711303606000001,0,2224,3936
7.715234037999835,2720,4897,0
7.718333879000056,19204,288,0
7.722268928000176,2016,8882,0
7.72611255899983,1712,16820,0
7.730084344999796,21013,16660,7537
7.733147971000108,1536,25302,0
7.7370688099999825,7681,4577,0
7.740052109999851,0,2064,192
7.743098967000151,0,256,0
7.747062043999904,11826,6897,0
7.751019357000132,5361,3808,0
7.754058431999965,64,2032,0
7.7570471399999406,432,992,0
7.760998328999904,0,6225,0
7.764073101000122,11506,5601,0
7.767089680000026,0,1744,0
7.771046936999937,2640,3040,0
7.77502389700021,0,4129,5793
7.7780244549999225,768,1472,0
7.782025077000071,0,1344,1568
7.785033562000081,8770,3184,0
7.789020823000101,14899,7441,0
7.792074169999978,2048,5457,0
7.79602325299993,0,2928,0
7.799069491999944,1648,7169,0
7.80205198800013,0,3280,0
7.806034712999917,0,9266,1520
7.809065448000183,0,1536,0
7.812967684999876,4145,5889,0
7.815984503999971,0,1824,0
7.820003207999889,5969,3408,0
7.823046414000146,14131,2256,1648
7.827063958000053,2592,8354,0
7.830231681999976,5393,5377,0
7.834325627999988,5377,23733,0
7.838311076000082,5793,11538,4016
7.84233537099999,1024,2304,1408
7.846028709000166,10338,15027,27702
7.8503931410000405,22533,6657,15315
7.853312745000039,2048,10498,0
7.8572594090001076,11266,7361,2064
7.861291064999932,0,512,4817
7.86425938299999,1024,7025,1056
7.8681825630001185,3696,1312,0
7.871207290999791,176,1680,0
7.875151966999965,2864,1280,0
7.878171285999997,0,5377,0
7.882191187999979,1552,1776,0
7.885231727999781,4449,1952,0
7.889208592000159,12819,5857,0
7.892250653999781,0,2880,0
7.896178305999911,0,5377,944
7.899240840999937,768,2784,0
7.902268990999801,0,9970,0
7.906157790000179,5169,2784,0
7.910198258000037,1424,1440,848
7.914016285999878,4385,2384,2528
7.917350138000074,1968,3408,0
7.921256925999842,8722,13731,12851
7.925176695000118,1104,4481,2912
7.9291099080001,13907,5697,3552
7.933164988000044,16916,22229,560
7.936196723000194,19748,2992,0
7.940164157999789,20324,22037,17828
7.944414427000083,3280,3936,256
7.947391161999803,1024,9042,0
7.951518167999893,9778,10194,0
7.955406347000007,3440,1136,0
7.958400217999952,0,592,1312
7.9615615829998205,0,7265,0
7.965511300999879,2896,8866,0
7.969346582000071,18180,3664,1424
7.972555435999766,8498,18964,0
7.976290535999851,0,5153,0
7.9793839069998285,4641,1552,0
7.983399924999958,1744,4097,0
7.986476441999912,0,3072,0
7.9903096379998715,8354,1360,0
7.993370811000204,0,112,0
7.996400601999994,0,880,0
7.999509993000174,1440,1120,0
8.003361006999967,992,5905,3536
8.007413781000196,3872,1520,2448
8.010588542999812,6913,768,0
8.014476719999948,0,5393,0
8.017432915999962,0,1024,2320
8.021548385000187,4817,944,3536
8.025316146000023,2752,6273,2160
8.02843930400013,0,19716,0
8.032499069000096,19316,22757,6705
8.036485126000116,3936,656,2816
8.039492094999787,0,5121,0
8.043265798999983,560,23509,0
8.047313420000137,1792,3072,22789
8.050493180000103,1232,2224,0
8.0543800129999,0,19716,528
8.057325330999902,3600,1472,0
8.061467787999845,2048,2304,0
8.064471607000087,0,4609,8962
8.068313259000206,27878,2448,9218
8.07247248800013,10162,2832,0
8.076256729999841,6481,3872,12547
8.08020647300009,22261,19012,1440
8.083386152000003,4945,6401,5169
8.087423817999934,35032,13395,5265
8.091517706000104,12387,3552,8530
8.095490590999816,17316,20725,5297
8.099297631999889,40473,768,0
8.102605202000177,2928,10978,0
8.106417943999986,32247,6161,0
8.110463394999897,14099,768,1264
8.114395545000207,3024,5969,3856
8.117429379999976,3840,6417,4369
8.121324104999985,10770,848,0
8.124579285999971,0,5297,0
8.128568178000023,5889,4113,18468
8.13234062399988,11026,8466,0
8.13540246499997,752,6625,0
8.139312046000214,1520,9186,2464
8.142435730000216,0,1296,0
8.146344327999941,3760,11266,0
8.150456317000135,9298,13299,2144
8.153444837999814,7889,32247,0
8.157364233999942,6337,240,0
8.161278304000007,3792,12515,7281
8.164335243000096,0,13395,0
8.167398948000027,0,1904,0
8.171272864000002,0,11234,0
8.17438419300015,19924,4865,0
8.178280773000097,0,512,4337
8.181323710000015,0,18436,0
8.185287974999937,5713,624,3472
8.188423400999909,2224,14515,0
8.192187912999998,976,9522,0
8.195203545999902,0,4353,0
8.199142982000012,2416,3280,0
8.20216510299997,8754,20725,0
8.206274583999857,20196,1296,0
8.210097292999762,10002,1168,0
8.213121387999763,7425,5249,2000
8.217096186000163,3840,5105,8338
8.220122905000153,48,2224,0
8.224375552999845,19124,11106,3152
8.228322414000104,2160,4064,3840
8.232286015999762,12579,0,0
8.235322588000145,11778,6929,0
8.239338249999946,0,7009,0
8.242337982000208,22309,16500,4865
8.246153716000208,3840,4337,0
8.250263613999778,0,1280,4945
8.253292466999937,22549,976,2336
8.257159767999838,4193,3696,16
8.261309576999793,19492,3328,5025
8.265248808999786,8354,13251,4689
8.268400760000077,560,32343,224
8.272547006999957,29207,4865,0
8.276374253000085,1600,8498,256
8.280244740999933,18916,1280,3952
8.283361960000093,7441,6401,0
8.286522965000131,0,1536,0
8.290507651000098,13155,7521,0
8.294285623000178,5121,288,0
8.297435470999972,5425,3824,848
8.30140117000019,480,7089,0
8.304441701000087,4865,8161,6097
8.308407159000126,3568,3920,0
8.312312431999999,4609,5889,0
8.315438179000012,11506,6145,256
8.31948139899987,0,4353,112
8.322627159000149,3440,14435,0
8.326421755999945,3840,7169,0
8.330409136000071,13363,1184,0
8.333505582999805,4513,4353,4193
8.337576753000121,4689,9026,2304
8.34154222699999,768,5953,2592
8.344536228999914,4641,16115,0
8.34864007599981,37481,9218,16900
8.352415061000102,3520,10674,1264
8.356479633000163,1968,336,1888
8.360312649000207,3856,1552,0
8.363377885999853,0,7953,736
8.36651214099993,256,2864,0
8.370392705000086,11314,2816,2576
8.374361040000167,0,6193,7441
8.377489499000148,5905,3328,0
8.381431399000121,50748,4577,0
8.385338802000206,14099,928,0
8.388627007000196,752,2528,2128
8.392405971999779,3008,5457,0
8.39534238899978,6305,1216,0
8.399386809000134,1248,3536,3872
8.403326757999821,8145,880,0
8.406488255000113,2256,4385,0
8.410456967999835,19764,1504,0
8.413428040999861,10722,864,0
8.417522310000095,6801,2128,0
8.420613009000135,1232,2288,0
8.424556397999822,19364,5137,0
8.428356639999947,2992,2352,48
8.431400659999781,368,1120,0
8.435537517999819,20837,2400,1136
8.438657014,1024,2736,0
8.44256247200019,4977,3792,0
8.446252221000123,25350,720,0
8.44958250899981,2544,1072,0
8.453368552000029,9058,1584,0
8.456307239000125,320,1168,0
8.4602222540002,4641,5121,0
8.46336161599993,7233,3520,0
8.467263398999876,768,1904,0
8.470384161999846,8610,2416,848
8.474278759999834,2208,880,0
8.477365295999789,7505,1824,0
8.481274496999959,33544,3168,0
8.485164795999935,5745,1792,592
8.488198422000096,0,3824,0
8.492114050000055,32007,1280,0
8.495147407999866,25110,3584,0
8.499087417999817,16596,928,0
8.502406095999959,2352,2640,0
8.506399153000075,1328,1584,0
8.509411520999947,13171,1072,0
8.513337041999876,0,7713,0
8.516389570999763,34424,2576,0
8.520107262999773,1280,3376,0
8.523335665000104,17636,4961,0
8.527406668999902,31431,4048,0
8.531088011000065,784,2048,0
8.534386296999855,1392,2672,0
8.538369218999833,23733,2384,0
8.541327957999783,49324,2272,0
8.545348352000019,3328,2400,0
8.548349601000155,21525,1648,0
8.552401946999908,17412,2608,0
8.556340873999943,12050,3472,0
8.559383847999925,864,3552,0
8.563385043999915,16371,5585,0
8.566555635999975,16339,1856,0
8.570572449999872,27718,6401,0
8.573487956000008,0,1200,0
8.577569682000103,65535,1632,0
8.58045975799996,19108,976,0
8.584530367999832,2928,5297,0
8.588474773000144,22485,2448,0
8.591603364000093,3184,2592,0
8.595350502000201,256,864,0
8.598599441999795,10050,3232,0
8.602348086999882,4577,3312,0
8.605447440999797,13267,3280,0
8.609511379000196,5841,3056,0
8.61250524900015,9074,2896,0
8.616452681999817,352,9394,0
8.619649135000145,31815,2304,0
8.623360342000069,2544,5825,0
8.62732875499978,5665,1552,0
8.630569340999955,10722,2480,0
8.634379582999827,24037,1264,0
8.637642498999867,5889,2080,0
8.641447336000056,0,3424,0
8.644440583999767,1120,4945,0
8.648500517999764,7569,2400,0
8.651579263999793,6673,3136,0
8.655461414000001,224,1024,0
8.658421577999889,944,2832,0
8.662346600000092,3088,3760,0
8.665499786000055,16051,4433,0
8.669234538000183,96,2912,0
8.672430578999865,40249,1648,0
8.676446739999847,17908,624,0
8.679580978000104,28518,1792,0
8.683445206000215,10818,6305,0
8.686684194000009,0,3824,0
8.689616973999819,0,0,0
8.693433830999766,0,1008,416
8.696605381000154,1888,1456,0
8.700538035000136,5889,1792,0
8.703466302999914,112,3584,0
8.707554685000105,1616,1264,0
8.71046420399989,1968,1936,0
8.714408970000022,1392,1280,0
8.717673321999882,16644,1328,0
8.72149146699985,10546,4337,0
8.725535280999793,10914,2528,0
8.728501444999893,9954,2144,0
8.732479700000113,0,1008,0
8.735555078999823,4161,2000,0
8.739390401000037,5233,1824,0
8.742608736999955,4913,3568,0
8.746312432000195,2800,3376,0
8.74963631899982,3616,3040,0
8.753254320999986,0,1360,0
8.75641576299995,4609,2576,0
8.760268755000197,7089,1616,0
8.76333845299996,256,3712,0
8.76723324500017,10226,2560,0
8.77041625899983,7265,3312,0
8.774304311999913,1440,928,0
8.777357696999843,80,2416,0
8.78045928199981,256,2064,0
8.784273190000022,6209,4705,0
8.788143196999954,8145,1584,0
8.791193309999926,5425,2048,0
8.79514221699992,176,1024,0
8.798277206999956,5153,4113,0
8.801434767000046,0,3568,0
8.805236319999949,4625,9602,0
8.808446380000078,3808,2304,0
8.81235832099992,1296,5361,0
8.815349640000022,6433,1792,0
8.819408694999765,6401,3328,0
8.823379506000038,1152,1792,0
8.826446942000075,3216,3344,0
8.830376051999792,3312,2256,0
8.833291035000002,0,1552,0
8.83649103300013,1456,1360,0
8.840320907000205,3936,5073,0
8.844368125000074,3280,3168,0
8.84743067699992,4753,2528,0
8.850474274000135,5921,0,0
8.8543669579999,5425,1984,0
8.857621280999865,0,1264,0
8.86136638500011,160,2304,0
8.864454799000214,5857,2672,0
8.868348339000022,5105,2208,0
8.871519052000167,2544,2592,0
8.874705499999891,0,1024,0
8.878455008999936,8722,3632,0
8.882492509999793,7409,3040,0
8.88545614099985,2016,3216,0
8.889542041999903,11666,1376,0
8.892640045000007,1280,1008,0
8.896319532999769,144,624,0
8.899616414999855,7729,1296,0
8.903445217999888,3296,1712,0
8.906517163999979,2208,1552,0
8.910406843000146,976,1712,0
8.913391104999846,1040,1296,0
8.91733016399985,4753,1120,0
8.920651781999823,8418,2928,0
8.92456150199996,256,3648,0
8.927485493999939,352,1552,0
8.931537732999914,1920,1040,0
8.934574874000191,80,544,0
8.93767572500019,0,1152,0
8.941380683999796,304,2464,0
8.944655393000176,1760,2160,0
8.948540563999813,784,1344,0
8.951499160999902,5937,2608,0
8.955461285000183,1792,0,0
8.95862229100021,4097,2048,0
8.962349685999925,1504,2656,0
8.965613206999933,3104,1536,0
8.969407788999888,5329,992,0
8.972643694999988,11442,1280,0
8.976442396000039,1792,208,0
8.979460783999912,37273,2224,0
8.983472515999892,22277,3152,0
8.986540918000173,0,1248,0
8.990537823000068,4145,1504,0
8.993602212000042,320,3328,0
8.997438582000086,35944,2096,0
9.000660592999793,6337,1888,0
9.004605328999787,35592,2720,0
9.007460985999842,65535,0,0
9.011478008999802,25782,1296,0
9.014657116999842,0,1392,0
9.017699516999983,0,1280,0
9.021633243999986,18292,2816,0
9.025521597000079,21365,2544,0
9.028691938000065,35704,2800,0
9.032385504000104,2320,1504,0
9.03633951599977,18324,1072,0
9.03948572499985,9218,2992,0
9.043417941999905,2304,2160,0
9.046526223,10290,1616,0
9.050367643999834,12210,1200,0
9.05347940799993,11666,1296,0
9.05740505599988,65263,2720,0
9.061340879999989,32519,2144,0
9.064460981000138,35000,2400,0
9.068373533999875,13171,1392,0
9.071464729000127,1024,2672,0
9.075376121999852,22837,3120,0
9.079180707999967,28871,1792,0
9.082235787000172,25686,3072,0
9.086175228999764,65535,8161,0
9.089207161000104,20485,768,0
9.093330928999876,23829,1968,0
9.097409614999833,51484,112,0
9.100439077999908,288,1888,0
9.104409051999937,19940,2848,0
9.10740445500005,1888,944,0
9.11131513600003,29031,2816,0
9.114395864000016,15331,256,0
9.118368932000067,13395,1008,0
9.121547128000202,6465,3072,0
9.12536404499997,18212,4193,0
9.129153580000093,18436,1424,0
9.132361936000052,3760,1872,0
9.136449972999799,31399,240,0
9.139483988999928,16964,1792,0
9.143352363999838,31079,5681,0
9.147446596999998,10514,2240,0
9.150527807999879,30823,1360,0
9.154535208000198,4241,656,0
9.157674102999863,5377,1024,0
9.161431493999771,17668,3504,0
9.165469880999808,11794,1648,0
9.168637886999932,16500,3808,0
9.172452293999868,4865,1824,0
9.175646463999783,4865,1136,0
9.179375148999952,1888,1968,0
9.182484310999826,44810,2480,0
9.186508537000009,5249,5585,0
9.190299243000027,47419,2128,0
9.193483932000163,4097,2160,0
9.197342549000041,5489,2560,0
9.2004083490001,17876,1792,0
9.204558262999853,14995,3936,0
9.207638240000051,7201,1952,0
9.211424297000121,6305,8690,0
9.215450718999818,12563,2048,0
9.218580540999938,22789,3568,0
9.222538282000187,23301,2304,0
9.225647543999912,1584,2048,0
9.229442411000036,6993,8097,0
9.232650340999953,34872,624,0
9.236514596999768,6209,4865,0
9.240455503999783,10498,2576,0
9.243480348000048,5361,3008,0
9.247393474000091,17748,1968,0
9.2505777880001,10162,1968,0
9.25451614900021,784,6993,0
9.257501348999995,112,2528,0
9.26138470099977,5377,2992,0
9.26449346399977,368,2064,0
9.268513496000196,512,3728,0
9.271598840000024,4897,1696,0
9.275408927000171,17620,496,0
9.278669292999894,23413,3984,0
9.282582824000201,5169,5537,0
9.285676672000136,1488,2512,0
9.289601077000043,11186,4225,0
9.29340060300001,1152,1472,0
9.296517115999904,4657,3952,0
9.299674319000133,64,4145,0
9.303389008000067,9010,3472,0
9.30745012999978,2544,1440,0
9.31061057199986,9378,3024,0
9.31447172900016,656,1200,0
9.317604141000174,6897,2400,0
9.3215191029999,1952,2832,0
9.324584420000065,5377,3840,0
9.328288566000083,1280,2736,0
9.33160507599996,416,1744,0
9.335526951999782,2736,1232,0
9.338470917999985,2304,2144,0
9.342369270999825,7217,4337,0
9.345439328999873,4097,2240,0
9.34935694700016,7281,2080,0
9.352548968000065,224,1024,0
9.35639507399992,1392,1232,0
9.359284124000169,6881,2224,0
9.363220014000035,944,7201,0
9.366220701000202,3104,1536,0
9.370157541000026,4417,8722,0
9.37322423500018,704,1312,0
9.377314556999863,0,1168,0
9.380372155999794,7761,3168,0
9.384480153999903,2304,2304,0
9.387482305000049,4321,1056,0
9.391415897000115,2096,1040,0
9.394424511000125,816,1120,0
9.39839345900009,5185,1232,0
9.401351976000115,5729,3232,0
9.405436250000093,4737,2768,0
9.408457990999977,8290,1600,0
9.412147640000057,336,7601,0
9.415402860000086,1152,1568,0
9.419419346999803,3328,1456,0
9.422307637999893,2240,2560,0
9.426439428999856,9842,3760,0
9.429374812999868,6897,1792,0
9.433283746000143,4193,2400,0
9.437354430000141,1904,2192,0
9.44033821999983,5553,3168,0
9.444399054999849,160,2352,0
9.447607590000189,4865,1792,0
9.451515814999766,3328,2032,0
9.454606237000007,1168,1104,0
9.458511539000028,4129,1808,0
9.461634430999766,3360,3280,0
9.465565244000118,2288,3728,0
9.468648549000136,3872,2096,0
9.472560671999872,1024,528,0
9.475617385000078,2304,2224,0
9.479358290000164,3472,2704,0
9.482658714000081,2544,2384,0
9.486608702000012,9650,7377,0
9.489670022000155,2816,3920,0
9.493443363000097,1296,5489,0
9.496530910999809,768,1760,0
9.500582112999837,5841,6513,0
9.50449715700006,1056,1280,0
9.507585436999761,5857,3088,0
9.51148494400013,3104,2256,0
9.514476147000096,1824,2208,0
9.518495866000194,6385,1632,0
9.521644801000093,2096,4048,0
9.525401568999769,368,3360,0
9.5285022879998,8962,3168,0
9.53241336300016,2560,1776,0
9.535541756999919,0,960,0
9.538664532999974,4913,2112,0
9.542587679999997,1552,5905,0
9.545626772000105,2928,2240,0
9.54963277800016,6913,3072,0
9.552728063999893,816,896,0
9.556485696999971,896,5665,0
9.559592577999865,5553,1648,0
9.563303069000085,0,8786,0
9.56653911300009,2624,2256,0
9.570529371999783,4865,1632,0
9.573452209000152,976,1440,0
9.577386019000187,1280,4080,0
9.58062427799996,1584,3840,0
9.584536648999801,848,5377,0
9.587652264000099,3680,2816,0
9.59155583599977,3136,1792,0
9.594475714000055,688,1904,0
9.598527800999818,3152,1200,0
9.601655117000064,3856,3168,0
9.605566470000213,2416,3056,0
9.608639007999955,6961,2704,0
9.612343820000206,1024,5905,0
9.615639868000017,0,1520,0
9.619420695999906,4177,1536,0
9.622499337000136,256,3072,0
9.626313035999829,1792,1808,0
9.629375684000024,5425,1184,0
9.632492674999867,0,560,0
9.636405007000121,0,4609,0
9.639412112000173,6849,2224,0
9.643257109999922,0,2928,0
9.646490473000085,3760,3008,0
9.650321992000045,3840,1792,0
9.653432743999929,1440,1920,0
9.656477416000143,0,1792,0
9.66024485600019,4401,5681,0
9.664189719000206,1024,2784,0
9.667185255999811,3568,4209,0
9.671174376000181,2608,1584,0
9.674444636999851,2384,1888,0
9.678358078000201,2496,2224,0
9.681456502999936,3792,3536,0
9.685362354000063,1872,2416,0
9.688422428000194,7713,3248,0
9.692305889000181,1904,1744,0
9.695320450000054,288,864,0
9.699335318000067,4641,1712,0
9.70237674000009,1072,2784,0
9.70634420899978,3248,2736,0
9.709335891000137,4657,1184,0
9.713280920000216,1296,1280,0
9.716433971999777,0,2368,0
9.720306021999932,5377,2656,0
9.72330371299995,224,3312,0
9.727339718000167,1440,1440,0
9.730418444999941,4257,2688,0
9.734561566000139,1440,1424,0
9.737632305999796,1600,1552,0
9.741548176999913,4849,3952,0
9.744519666000087,1584,3600,0
9.748570116999872,7105,3152,0
9.751535843000056,2896,1840,0
9.755574717999934,848,8354,0
9.758474986999772,3408,1808,0
9.762309963000007,128,4865,0
9.7656674079999,4353,2416,0
9.769410921000144,6865,9250,0
9.772672086000057,768,1552,0
9.776548121999895,480,1024,0
9.779460561000178,6401,2304,0
9.783375053999862,0,2416,0
9.786674265999864,4849,2656,0
9.790535377000197,5553,3152,0
9.793412549000095,0,1280,0
9.796551980999993,1712,2224,0
9.800570146000155,9458,3696,0
9.803675034000207,864,2912,0
9.807608583999809,6401,3952,0
9.811330090999945,4273,1520,0
9.814633423000032,1920,2864,0
9.81854275500018,1280,1616,0
9.821613538999827,3424,3632,0
9.825535873999797,3840,3216,0
9.828543171000092,6961,2480,0
9.832569554000202,1856,1776,0
9.83561502800012,256,1712,0
9.83955858399986,5537,1280,0
9.842547852999814,1184,2128,0
9.846343642000193,6257,4369,0
9.849549763000141,5889,2240,0
9.853532783999981,528,1520,0
9.856689042000198,736,2304,0
9.860457675999896,5329,3584,0
9.863526023999839,1184,2512,0
9.867452695999873,4353,2048,0
9.87057095199998,4113,1840,0
9.87454604300001,0,5121,0
9.877490318000127,1008,2224,0
9.88140978499996,3344,2400,0
9.88469005800016,1280,2608,0
9.888593319999927,5809,1904,0
9.891552782999952,3024,1216,0
9.895345264999833,480,736,0
9.898624091999864,3824,2448,0
9.902555378000216,2064,4481,0
9.905556042000171,3664,2048,0
9.909591920999901,9106,2144,0
9.912543655999798,0,1584,0
9.915538033999837,0,1184,0
9.919621751999784,2736,4497,0
9.922541994999847,752,2992,0
9.926438915999825,4385,6049,0
9.929561577000186,5345,2288,0
9.933374532000016,4353,2816,0
9.9365675250001,432,1984,0
9.94042607199981,11618,5649,0
9.944313112000145,784,3408,0
9.94743468500019,2960,1840,0
9.951347631999852,4289,1840,0
9.954422024999985,736,2224,0
9.958241540000017,2272,1104,0
9.96133081400012,6065,2864,0
9.965234305000195,1472,2048,0
9.96825085799992,9474,3568,0
9.972442922000027,256,560,0
9.975498510999842,1584,1744,0
9.979391435999787,4577,2784,0
9.982498884000051,832,3616,0
9.98647415000005,3904,2064,0
9.989437459999863,6353,2704,0
9.992491543000142,0,1392,0
9.996379569000055,5377,4113,0
9.999482571000044,5553,1584,0
10.003321483000036,3072,3744,0
10.00738963599997,1632,2416,0
10.010457135999786,4673,2576,0
10.014426847999857,256,1392,0
10.017464093999934,544,3104,0
10.021420974000193,5377,2352,0
10.024477310999828,1792,3104,0
10.02843721599993,4785,2320,0
10.031430005999937,1808,1568,0
10.03470257500021,0,1744,0
10.038618032000159,2736,4449,0
10.042395414000111,1888,2896,0
10.045795693999935,2192,2304,0
10.04951059699988,7217,2560,0
10.05264877799982,2816,1984,0
10.056412645999899,304,1792,0
10.059658446999947,7889,2992,0
10.063397641999927,1200,2640,0
10.066567021000083,3856,2272,0
10.07055265400004,4609,1712,0
10.073470004999763,16,1536,0
10.077498629999809,976,1760,0
10.080638207999982,6913,2336,0
10.084563667000111,1808,2560,0
10.08766791800008,5041,1616,0
10.09137617899978,3184,2224,0
10.094509904999995,208,736,0
10.098490338999909,1840,2304,0
10.101664020000044,4833,3568,0
10.10558531200013,4481,3312,0
10.10865136099983,7809,1600,0
10.11241198000016,2640,1024,0
10.115469853999912,1168,1776,0
10.119309190999957,6929,416,0
10.12245232899977,1520,1808,0
10.126634507999825,6753,4353,0
10.129628061999938,7089,1632,0
10.133408572000008,1488,784,0
10.136697543000082,1280,2240,0
10.140563579000172,5185,2656,0
10.143525984999997,688,2480,0
10.147451632999946,1808,1360,0
10.150684390000151,3568,2096,0
10.154553357000168,0,2416,0
10.157668433999788,1008,1936,0
10.161452904999805,5729,1696,0
10.164680069000042,1952,3024,0
10.168421601999853,5345,2016,0
10.171664912999859,2720,1200,0
10.17558690099986,256,1040,0
10.178706118999798,5665,2304,0
10.182583786000123,288,3728,0
10.185695208000197,2064,1856,0
10.189433192999786,7153,2400,0
10.192653645000064,352,1072,0
10.196442739999839,0,1280,0
10.19965120300003,5137,2000,0
10.203410085000087,1024,2560,0
10.206571586999871,3840,3104,0
10.210559786999966,5089,2848,0
10.213512734999767,1312,1136,0
10.217479570999785,2192,912,0
10.220689370999935,5009,1856,0
10.224362164000013,496,3328,0
10.227468888000203,4032,2416,0
10.231365239999832,4161,1552,0
10.234483015000023,944,1280,0
10.238374677000138,2448,1360,0
10.24148594999997,4097,2288,0
10.245394040000065,1328,2896,0
10.248475439999766,6481,1696,0
10.2522627190001,1968,1280,0
10.255344443000013,0,1280,0
10.259252248999928,3856,2000,0
10.262230444000124,432,2864,0
10.266343467999832,3424,2400,0
10.26939107499993,6481,1168,0
10.273299507000047,1040,768,0
10.27624009100009,432,1792,0
10.280348692000189,5041,1824,0
10.283321548000004,0,1792,0
10.286503094000182,3184,2256,0
10.290505233000204,9474,4593,0
10.293347898999855,32,1024,0
10.297440997000194,256,9634,0
10.300483473999975,5489,2848,0
10.304375571000037,1328,2944,0
10.307511438999882,3728,1696,0
10.31136537700013,4897,6689,0
10.314504566999858,0,1328,0
10.318431748999956,3072,1248,0
10.321547897000073,5041,3296,0
10.32549466699993,3120,3744,0
10.328505872999813,8530,2736,0
10.332429819000026,1024,7761,0
10.33560264300013,1600,1280,0
10.33950394500016,3168,3808,0
10.342660305000209,0,2800,0
10.346423579000202,3120,3376,0
10.349585868999839,6209,1792,0
10.35339900300005,352,1280,0
10.356590327000049,0,3760,0
10.360421123999913,5665,2752,0
10.363441830999818,1568,2304,0
10.367539409000074,1520,1424,0
10.370579631000055,5665,1568,0
10.374580106999929,1072,1072,0
10.377480015999936,352,1936,0
10.381456035000156,4721,2384,0
10.384516842999801,1024,2416,0
10.388581317999979,5377,1504,0
10.391711665999992,2624,2048,0
10.395320212000115,0,528,0
10.398651122000047,5729,3184,0
10.402535499999885,1008,4801,0
10.405651060999844,2768,1568,0
10.409424562999902,8466,2336,0
10.412517234999996,784,1728,0
10.416457878000074,864,1744,0
10.421454070999971,7601,2224,0
10.423301537000043,1040,3040,0
10.426509007999812,6337,3168,0
10.43040416599979,4129,2128,0
10.433456277999994,1392,1392,0
10.437350140000035,0,1040,0
10.440467184999761,9394,3856,0
10.444383192999794,1872,2656,0
10.447867221999786,3104,1440,0
10.45140180999988,2240,720,0
10.454596588000186,1488,2048,0
10.458292619000076,2640,1152,0
10.461368984999808,5633,2192,0
10.4652023499998,5377,3408,0
10.468308038000032,7889,2928,0
10.472220206000202,2128,1792,0
10.475257274999876,1136,1280,0
10.47920952000004,1888,544,0
10.482160650999958,0,3664,0
10.48614545700002,4833,2256,0
10.489181429999917,5569,2048,0
10.492215392000162,0,1376,0
10.49619639499997,208,5073,0
10.499212484000054,7281,1696,0
10.503176762999828,0,4465,0
10.506711777999953,5937,4177,0
10.51012379299982,4497,2656,0
10.513187630000175,0,1616,0
10.516181872999823,0,2240,0
10.520142810999914,3552,2304,0
10.523230538000007,1792,3008,0
10.527180563999991,3744,7889,0
10.53021526800012,3616,2816,0
10.534197731999939,2048,4016,0
10.538170337999873,1984,2048,0
10.541203515999769,5105,3168,0
10.54522004599994,1536,2864,0
10.54817403700008,5809,4353,0
10.551203817999976,2960,0,0
10.555225097999937,80,6241,0
10.5582470129998,5377,2048,0
10.562220298999819,0,4097,0
10.565188581999791,3856,2256,0
10.569202667999889,6961,1808,0
10.572225566999805,1776,2832,0
10.576166156999989,928,1760,0
10.579221206000057,6913,2400,0
10.583193413000117,272,2384,0
10.586181353000029,4305,2752,0
10.590196666999873,3552,1296,0
10.593209403999936,0,1536,0
10.59716639699991,1648,1536,0
10.600246121000055,9954,3040,0
10.604201028999796,1056,3232,0
10.607249541999863,3760,2848,0
10.611370665999857,2880,1568,0
10.614406530999986,224,1296,0
10.618400780999764,1504,1120,0
10.621297589999813,4737,2880,0
10.625399281999762,2448,2560,0
10.628382997999779,6001,1280,0
10.632444252999903,816,736,0
10.635519642999952,1776,1952,0
10.639396273999864,6385,1648,0
10.642439985999772,1504,2704,0
10.646449284000028,5105,3248,0
10.649276899000142,5937,2464,0
10.653320454000095,272,1296,0
10.656475061000037,864,1824,0
10.66027949599993,5153,2144,0
10.663316688000123,560,3376,0
10.66729214499992,2096,2400,0
10.670326062000186,3840,1680,0
10.673363106000124,0,256,0
10.677344963999985,6001,1392,0
10.681311667000045,3840,1760,0
10.684365995000007,3680,3328,0
10.68831604900015,3296,2192,0
10.691348217999803,4289,3344,0
10.695275604000017,656,1024,0
10.698355371000162,2544,2160,0
10.702257418000045,848,3168,0
10.705346237999947,3504,2464,0
10.720659319999868,7409,1904,0
10.721088538000004,768,2000,0
10.721522690999791,1488,2464,0
10.721962163000171,5121,2800,0
10.723223383000004,256,2544,0
10.726235608000025,4048,2304,0
10.730210629999874,5505,2000,0
10.73323477599979,768,880,0
10.737174286000027,192,2400,0
10.740225206000105,7985,4721,0
10.744200888999785,2304,4000,0
10.747249016999831,2720,2352,0
10.751217801000166,4048,1856,0
10.754248740000094,416,1456,0
10.758271418999811,2608,688,0
10.761280068999895,5969,2880,0
10.765250603999903,1936,2624,0
10.768336763000207,8129,3392,0
10.772193385999799,512,1296,0
10.775225368000065,1616,1120,0
10.779201202999957,3568,1744,0
10.782230204999905,768,2352,0
10.786193015000208,1552,2304,0
10.789256859000034,6625,1632,0
10.793199482000091,1216,624,0
10.796226357999785,704,2304,0
10.800233185999787,7121,2864,0
10.80325657100002,752,3424,0
10.807234952999806,2064,1072,0
10.81029285500017,2816,2000,0
10.814203925000129,784,1136,0
10.817289987000095,2400,2352,0
10.821194819000084,3568,3664,0
10.824220989999958,3072,2816,0
10.828184714000145,5313,2240,0
10.831228553000074,2880,1712,0
10.834211703000165,48,64,0
10.838213814000028,10850,3024,0
10.842188481999983,976,2896,0
10.845260983000117,3120,3024,0
10.849209059999794,6865,4625,0
10.852220316000057,1280,1840,0
10.856201075000172,800,1040,0
10.859215595000023,5905,2256,0
10.862229636999928,0,3264,0
10.866213860999778,7217,4929,0
10.869265878000078,6561,4705,0
10.873216076000062,3840,2816,0
10.87720133899984,1008,1360,0
10.880240912999852,6033,3776,0
10.883237963999818,0,4913,0
10.887215251999805,2160,7057,0
10.89024368499986,0,4529,0
10.893216536000182,0,1984,0
10.89722168299977,176,1744,0
10.90031754399979,7745,5121,0
10.904297698999926,4913,4385,0
10.908259848999933,3680,1280,0
10.911286692999965,3632,4177,0
10.915270734999922,368,1472,0
10.918262386000151,5553,2656,0
10.921299088000069,0,3328,0
10.925292205000005,3984,3072,0
10.928309569999783,5889,3424,0
10.932320363000144,2272,6993,272
10.935304344000087,0,1360,0
10.93926545300019,3680,10962,0
10.942291428999852,224,9490,0
10.946286811999926,8450,3904,0
10.950271170000178,3792,2800,0
10.95328818400003,1744,2272,0
10.957272754999849,1280,1296,0
10.960293539999839,1760,2496,0
10.964290851999976,6913,2992,1520
10.967302859000029,6897,3424,0
10.97129121099988,5249,4753,3104
10.975275161999889,1536,1760,0
10.978268076999939,5553,2672,0
10.98224318199982,368,3584,0
10.985272090999842,9122,1792,0
10.989259297999979,12242,2816,0
10.992222903999846,512,0,0
10.996197872999801,816,3088,0
10.999218131999896,2736,2048,0
11.002241930999844,48,3840,0
11.006234753000172,5649,3680,0
11.010199316000126,4353,2224,0
11.013231557999916,1120,2112,0
11.017215539000063,1792,4097,0
11.020301094999922,3856,4769,0
11.02426278699977,1440,3136,0
11.027301683000132,4337,2512,0
11.031289504000142,2000,1184,0
11.034313710999868,112,1104,0
11.037290850999852,0,672,0
11.04129446099978,7441,4833,0
11.04432037100014,2016,2208,0
11.048318700999971,5601,3680,0
11.051321486999768,432,1248,0
11.055309251999915,3728,2768,0
11.05927751399986,6913,1760,0
11.062200377999943,256,3088,0
11.066208766999807,5329,1264,0
11.069235578000189,6481,3296,0
11.073216296999817,1280,1184,0
11.076254239999798,3104,2032,0
11.080289927000194,4593,1552,0
11.083288281000023,4353,2640,0
11.086338189999879,0,1312,0
11.090300453000054,6913,3792,0
11.093315684000117,336,1088,0
11.0973117919998,5057,2864,0
11.101287457000126,27654,2736,0
11.10430799300002,3136,5009,0
11.108281971999986,1280,2944,0
11.111275968999962,0,2128,0
11.114328143999956,688,1456,0
11.118301525999868,1792,4401,0
11.12220973500007,4097,2416,0
11.125307773999793,3328,3424,0
11.129284423000172,54365,1568,0
11.13231838999991,3248,1072,0
11.13623663899989,13843,1296,0
11.139326542000163,32119,1136,0
11.143297948000054,5793,4513,0
11.147275368999999,1936,2000,0
11.150297033999777,5265,2800,0
11.154255959999773,2560,1024,0
11.157290902000113,24085,2416,0
11.161283206000007,7761,768,0
11.164320696999766,14563,1792,0
11.168302133999987,5729,1104,0
11.171326065999892,25270,2752,0
11.175299015999826,6449,4609,0
11.179308304000187,31143,7121,6929
11.182316782999806,304,4080,0
11.186275308999939,1376,2832,0
11.189319899000111,9202,1296,0
11.193208235999919,416,5841,0
11.196285398999862,11010,1680,0
11.200314667999919,11378,3616,0
11.204256561999955,5489,2912,0
11.207268750999901,5777,2576,0
11.21126120300005,3072,1056,0
11.214243893000003,4545,3360,0
11.21854115699989,1232,6913,0
11.221354164999866,9074,1776,0
11.225315389000116,2656,2016,0
11.228329168000073,10914,2096,0
11.232218338000166,3856,3680,0
11.23529508899992,96,720,0
11.239206746000036,14131,4353,0
11.242300436999813,9682,2608,0
11.246296698000151,1904,4625,0
11.250259640999957,3536,4385,0
11.25325870100005,512,3088,0
11.257267434999903,30647,5329,32
11.260314440999991,27510,15731,0
11.264282344000094,1920,3072,0
11.267229248000149,1552,1280,0
11.27122098000018,14499,3120,0
11.275245040999835,5617,816,0
11.27827835800008,2816,5201,1600
11.282266117999825,5393,1024,0
11.285342711999874,10482,1280,0
11.28921837400003,5953,1840,0
11.293215963999955,26918,2192,0
11.296256790999905,4241,1056,0
11.300224784999955,9234,1648,0
11.303258120999999,1264,4577,0
11.30723903199987,12931,5265,0
11.310275926000031,24517,2592,0
11.314208905000214,7905,2816,0
11.317238925999845,0,640,0
11.321190028999808,2672,1472,0
11.324252844000057,0,2816,0
11.327310914000009,256,1280,0
11.331265720999909,11666,2976,0
11.335237800999948,3664,1280,0
11.338256860000001,15539,736,0
11.342211965999923,14963,2112,0
11.3453460730002,1168,1808,464
11.349328935999893,4273,6561,0
11.353319530000135,18164,1392,14899
11.35730956999987,15251,2224,224
11.360322451999764,15315,640,0
11.364289542999813,0,272,0
11.367289658000118,13235,1824,0
11.371313353999994,3696,1040,416
11.374329751000005,1104,3936,0
11.378299508000055,37849,9218,0
11.38222782899993,1264,2224,0
11.385303164000106,1600,2912,0
11.389269487000092,11250,736,0
11.39227859499988,18676,656,0
11.396265496000069,29479,624,0
11.399309181999797,13667,1728,0
11.403268486999877,0,5137,0
11.406287566000174,1856,2960,0
11.410278477999782,14595,2304,0
11.413286444999812,5777,3120,0
11.417283593999855,16099,6865,0
11.421223176999774,12915,2064,0
11.424294334000024,1648,4529,0
11.428210944000057,17716,1008,0
11.432232921999912,10914,10146,3328
11.43527734600002,6145,768,2208
11.439271589999862,19700,6097,6385
11.443230677999964,8113,8097,7953
11.44720530199993,12002,8674,0
11.451227547000144,18548,5121,19364
11.454266732000178,15987,15395,0
11.458249193000029,3456,2832,0
11.461287094999989,4785,1760,0
11.465340403000027,13315,9218,1792
11.469330868999805,18708,4353,848
11.473317490999762,17588,2976,0
11.476280041999871,4689,1792,0
11.480325684000036,3280,6897,0
11.48332355599996,2272,4273,0
11.487307310999768,10306,16,2288
11.491295636999894,23845,1792,768
11.495316094999907,2656,1280,3296
11.498315618000106,45179,9250,0
11.502299149999999,16660,16,0
11.505351952000183,4753,5617,2576
11.509350388999792,11746,14355,3584
11.513330291999864,2448,2096,0
11.517274039999847,8546,2272,0
11.520345761000044,9698,1280,7937
11.524339623999822,9298,6641,8946
11.528338599000108,38121,14947,2048
11.532356146999973,16932,10610,18164
11.536315900999853,10530,6369,1280
11.540316431000065,18724,1120,0
11.543336127000202,2560,4817,0
11.54732218900017,6737,4865,0
11.550314779000018,1168,928,0
11.554302525999901,6465,1888,0
11.557346607,20228,2576,0
11.561337529999946,17188,4497,0
11.564354594000179,23813,752,0
11.5683552280002,8450,3888,3072
11.572331677999955,9986,1184,0
11.575297732999843,10338,5425,0
11.579290107999896,17172,2432,5953
11.58229783500019,0,736,0
11.58630552700015,14083,3600,5377
11.59034009600009,6161,10018,0
11.594325923999804,22965,7201,0
11.598318962000121,13667,2864,1280
11.60136168200006,2912,10002,5169
11.605336974999773,22517,7185,1856
11.609332445999826,21253,8530,0
11.612325167000108,4625,9010,0
11.616357741999764,8754,3504,0
11.619355662000089,8818,4529,0
11.623312370999884,1792,9186,0
11.62724659200012,1120,5297,0
11.630300242999965,1712,1472,0
11.634274959999857,0,6513,256
11.637296670000069,176,3344,0
11.641289668999889,2144,1904,5025
11.645287098000153,17620,1552,7601
11.648314480999943,6913,7569,5281
11.652308281999922,2368,6097,10290
11.656295515999773,3152,10210,10722
11.660294665000038,5969,7441,0
11.66429190000008,11570,1040,5745
11.667313784999806,7697,1312,0
11.671297532000153,11522,5489,0
11.67523976199982,17412,6433,0
11.678322196999943,16179,6113,0
11.682301401000132,944,4048,0
11.685352211000009,3072,7985,0
11.689314604000174,8802,960,1280
11.692358338999838,16099,8450,0
11.69630996099977,5377,11042,0
11.700335018999795,6513,1648,5537
11.704192145999968,29863,11810,5793
11.708235201000207,8466,4016,3888
11.712233089000165,38649,26262,18484
11.71527587699984,17748,736,2256
11.719247408999763,6769,2304,656
11.723261989000093,624,9490,912
11.726287919999777,7937,4961,0
11.730267225999796,10482,5137,0
11.733328692000214,448,272,0
11.737310226999853,1968,2736,3104
11.741255295999963,5665,1840,320
11.744290930999796,0,7425,6337
11.748348587999772,29015,7041,12723
11.752313119000064,2128,7265,304
11.75532799199982,0,272,0
11.758335419000105,0,432,0
11.762292756000079,29415,3136,1776
11.766275625000162,12082,9442,0
11.77024735499981,9986,3168,0
11.773301617000016,1712,8738,20741
11.777302929000143,18532,16948,9714
11.781293037000069,11858,1632,1120
11.785269953999887,1824,15267,0
11.788302309999835,4865,8786,0
11.792283207999844,10114,7393,1584
11.79627008999978,6753,3152,0
11.799290527999801,912,7729,0
11.803268732000106,2512,1600,0
11.807286933999876,5777,1088,2048
11.81032115500011,7969,6145,0
11.81429437199995,16788,1504,0
11.817327199999909,7409,6369,0
11.821298190000107,5649,1072,0
11.824299818999862,304,1952,0
11.828274706999764,9986,1280,0
11.83132211200018,240,688,0
11.835294032000093,4609,4785,0
11.838284245000068,320,3632,0
11.842281015000026,1232,2816,2128
11.845276530999854,5009,496,0
11.849245853999946,5393,8338,0
11.852300596000077,0,1008,0
11.85627991499996,3440,5873,2080
11.860282741999981,24485,13443,528
11.864264891999937,5489,19412,0
11.868292558000121,17508,23157,11442
11.871291859999928,18180,23605,0
11.875358714999948,512,16195,0
11.879253007999978,3296,13603,720
11.882289908000075,17668,20901,0
11.886314134999793,15955,10898,2592
11.890344945999914,9234,9218,0
11.894340335999914,19204,10482,0
11.897252825000123,352,4145,0
11.901232486000026,10578,10594,0
11.904341105000185,2256,2816,2112
11.908288564000031,5425,3168,0
11.912260051999965,7249,2528,0
11.915279757000008,3120,4961,0
11.918378370000028,4113,96,0
11.922345389999919,560,4161,1024
11.92629437000005,5809,3920,0
11.929368021999835,7025,880,0
11.93236590100014,0,0,0
11.936316113999965,6481,2208,2304
11.940308315000038,10322,880,7153
11.943345928999861,10498,5281,0
11.94733853400021,6993,5553,2800
11.95133012999986,32055,2304,0
11.954372106999926,0,15699,14259
11.958373638000012,3072,11762,1136
11.962386199999855,53325,5121,5521
11.966286916000172,1968,11218,0
11.969378744000096,1232,1120,0
11.973347045000082,0,4529,0
11.976374565999777,1568,11874,0
11.980336820000048,8738,5025,0
11.983353228999931,1680,11826,0
11.987338802000068,8450,3840,1984
11.991368660999797,7681,2544,1104
11.995312677000129,2144,3808,0
11.998327596999843,6785,9890,0
12.00225206999994,5889,7745,0
12.005301271999997,3312,22869,704
12.009306494000157,8514,4177,0
12.013366224000038,5233,7345,0
12.017347264999898,13059,4097,10498
12.020379181999942,20004,7441,10850
12.024371365000206,9506,4769,0
12.028364707000037,12499,1488,1792
12.032347572000162,3584,2304,3856
12.035331584999767,1280,6689,0
12.039356880000014,5889,2304,0
12.042369556999802,0,992,0
12.045379417999811,0,4097,0
12.049661239000216,5873,5025,0
12.052351978999923,0,2080,0
12.056286695999916,2288,4337,0
12.059373486999903,1568,7409,0
12.063309188999938,3136,5921,0
12.066319057999863,17924,816,0
12.070358233000206,9490,1520,0
12.073373001000164,528,656,0
12.076358239000001,0,2672,0
12.080437600000096,14291,12130,4609
12.084539397999833,208,4129,0
12.087312993000069,11698,2336,0
12.091277035000076,15779,16067,0
12.095301199999994,1456,5601,0
12.098295242999939,3936,10402,0
12.10228033400017,12723,17108,4209
12.106261602999894,2720,224,0
12.109305733999918,1024,3296,0
12.113280361999841,3552,592,0
12.116323062999982,13027,512,0
12.120281402999808,1968,608,0
12.123287871999764,1264,4273,0
12.12756783399982,12002,3840,0
12.130392389999997,1984,1392,0
12.134354071999951,0,7425,544
12.13736135199997,0,1136,0
12.14134945900014,10594,4881,0
12.144314146999932,6593,6593,0
12.148372739000024,768,8818,0
12.151376144000096,16179,4353,0
12.155600158000198,0,4945,0
12.158405849999781,5585,11058,0
12.162339888000133,7473,6625,5265
12.16629786500016,10690,20244,0
12.16938774099981,2160,800,4193
12.17336566799986,7825,6881,0
12.177353200000198,8978,2464,6497
12.181583513000078,7409,9586,3232
12.184371939999892,2608,2944,0
12.188371078999808,22085,2832,0
12.191362237999783,6145,28166,0
12.195381497000199,18820,2576,0
12.199355895999815,6577,2128,0
12.202510930999779,5729,5553,0
12.205672450999828,0,9426,0
12.209374645000025,10898,5473,0
12.212389598999835,0,11218,688
12.216382916999919,6145,5745,0
12.219367136000074,0,2048,0
12.223332245000165,1760,480,0
12.226333870999952,2736,7921,0
12.23037333000002,4401,12034,0
12.233382901999903,0,2528,0
12.237366960000145,1792,4257,0
12.240361023999867,3248,2016,0
12.244350378000036,8049,3552,0
12.247404067999923,13747,1872,0
12.251397931000156,18772,4305,0
12.255298047999986,9186,9314,0
12.258337667999967,7665,5361,0
12.262345953000022,21941,800,0
12.265662423999856,5953,3840,3360
12.269344292999904,2304,9538,1104
12.273377901000003,1792,2304,0
12.276322317999984,14515,416,0
12.280295294000098,0,11458,0
12.283343700999922,352,1616,0
12.287319115000173,3552,6353,0
12.290352151000207,0,1200,13059
12.29432615099995,0,3536,0
12.297323504999895,3888,7649,0
12.300356559000193,0,96,0
12.30434004000017,2576,1264,3104
12.30832974399982,6113,464,1888
12.311356451999927,2400,832,0
12.314364952999767,0,2048,0
12.318321019999985,1536,10290,0
12.322296226000162,1264,2608,0
12.325363244000073,1824,3504,4689
12.32936616699999,14867,6593,3392
12.33334617599985,1936,256,2816
12.336377298000116,3440,976,96
12.340349497999796,3040,10578,0
12.344334202000027,1824,1360,0
12.34733885200012,496,4449,0
12.351329326999803,10802,6177,0
12.355320651000056,2768,8097,1024
12.35836643599987,11522,15587,944
12.362320206999811,10834,18644,0
12.366260021000016,11698,768,0
12.36931232500001,3072,928,0
12.373284685999806,4593,512,0
12.376378227999794,12755,4353,0
12.379403421999996,0,3920,0
12.383381913999983,2816,4353,0
12.38637054999981,0,2480,672
12.390354405999915,13059,5233,0
12.393376191999778,0,5889,0
12.397391850000076,2416,1792,10482
12.400404870999864,0,4337,0
12.40439024599982,16916,4961,0
12.408367964999798,14083,8818,0
12.41236228400021,4705,6753,1296
12.415365301999827,23989,1360,0
12.419370909999998,5377,2544,0
12.422358656000142,0,17156,0
12.426307518000158,4257,1104,0
12.42939474800005,1712,12963,0
12.433380445999774,5585,9266,0
12.436378086999866,944,784,0
12.440372317999845,5393,17524,0
12.443387609000183,13827,0,0
12.447372065999843,80,3600,2048
12.450398153000151,3744,4385,0
12.45436616500001,9874,0,0
12.457365802999902,3872,3328,0
12.46138459299982,14099,13747,0
12.46441789299979,0,1760,0
12.468370108999807,0,1792,1792
12.471358437000163,10578,1280,0
12.474365183999907,0,0,0
12.478387916999964,13107,1024,1600
12.482370343000184,5329,3872,0
12.485395595999762,0,2544,3744
12.48935607600015,25734,608,0
12.492412910999974,2800,20212,0
12.496395128000131,13971,15907,8354
12.50039574099992,4353,3312,1936
12.504379962999792,2480,1504,0
12.5074082430001,1552,4529,1120
12.51141322400008,11778,14051,1792
12.515393386000142,2176,5617,0
12.519370205000087,1520,1888,256
12.522401214000183,2416,4817,0
12.526337930999944,4865,656,0
12.529371869999977,0,1104,5121
12.533364412000083,4337,1280,0
12.536378525000146,416,16756,0
12.540387052999904,4016,0,1248
12.544332828999814,1248,848,10754
12.547380728000007,1744,5377,3536
12.551352512999983,9826,12499,0
12.555345907000174,928,1504,2592
12.558369901999868,224,4048,848
12.562339517000055,0,2576,0
12.565345612999863,2608,3376,0
12.569317973000125,528,1808,0
12.57237482399978,8370,768,3888
12.576370132000193,12803,9138,0
12.580367438999929,3760,12307,0
12.583395521000057,4465,3184,0
12.587382480000088,13523,1280,0
12.590387314000054,608,4353,7137
12.594365346999894,544,8546,0
12.597421937000036,768,4609,688
12.601390828000149,1616,9890,0
12.605364998999903,3296,3792,0
12.60841689300014,816,2256,2080
12.612402684999779,3952,4257,4625
12.616352820999964,4657,6401,0
12.619395307000104,6497,5601,11010
12.623409420999906,6401,2160,2432
12.627317663000213,160,3248,0
12.63139929099998,8642,1536,2464
12.634311238999999,3104,768,5441
12.638318402000095,17204,2992,0
12.641408413000136,64,880,4529
12.645408923000105,13235,4721,1792
12.649392736000209,3920,1104,3232
12.653395258999808,15923,1104,0
12.656377646999772,4401,11442,0
12.66033040000002,15219,688,7137
12.664395527000124,11778,848,0
12.667379499000162,13635,5633,0
12.671314062999954,15027,0,0
12.674349533000168,2272,1024,1120
12.678676841000197,39689,6817,20020
12.68236362000016,752,3712,0
12.6854155179999,0,2416,5905
12.689409288000206,19444,6913,2592
12.693365870999969,2048,5425,0
12.697379668999929,352,11058,1824
12.700435300000208,23061,1888,0
12.70435339100004,13075,4129,4401
12.708583974999783,8498,9090,4721
12.712353150000126,13395,12419,10018
12.71631900400007,5617,9682,3504
12.719418209000196,2224,3536,0
12.723361444000147,0,4193,48
12.726377704999777,2480,1984,0
12.73074023900017,2336,2288,0
12.733350366000195,7185,15731,0
12.737407489999896,8498,5537,816
12.74137724100001,0,2160,2816
12.744385172999955,5889,8033,0
12.748689922999802,144,12034,0
12.751419947000159,4497,7969,0
12.75537333200009,16468,1184,0
12.759357423999973,13331,20757,0
12.762423952000063,11042,1680,3072
12.766683689999809,6801,5537,9762
12.770396811999944,4353,7937,2912
12.773425621000115,1584,512,0
12.777401584000017,4048,4337,0
12.781380897999952,7761,3024,0
12.784417596999901,8866,4016,2064
12.788727196999844,9074,10642,0
12.792566708999857,768,5713,2784
12.795396471999993,4865,2448,0
12.798427673999868,0,1264,0
12.802405548000024,6593,6657,0
12.805423539000003,0,1088,0
12.809380185999999,0,2960,0
12.812417322999863,3232,3536,3360
12.816385742999955,1936,10546,0
12.820723666000049,2816,2976,96
12.82334968799978,6913,19236,7761
12.827322243999788,5217,20981,0
12.831328947000202,3808,2464,0
12.834369514000173,3376,9458,0
12.838304677999986,432,4289,0
12.841363012999864,144,4641,0
12.845323111000198,2352,3392,0
12.848345265999797,6817,112,0
12.851354347999859,0,6961,0
12.855420528000195,21173,1008,0
12.858404413999779,8738,3440,0
12.86240907499996,1984,10050,1024
12.86639564899997,30743,1792,5233
12.870411322000109,3232,0,3840
12.873421194000002,528,3920,0
12.87733710900011,688,0,3408
12.880434234999939,3776,2352,8081
12.88439218900021,5617,23509,0
12.8883670969999,14611,9058,22357
12.891361288000098,0,736,0
12.895402546999776,0,12835,0
12.898385994999899,0,1344,0
12.90237031100014,2032,4016,1888
12.905365274999895,0,3760,256
12.909355326999957,11026,2336,0
12.912397248000161,0,1344,0
12.91537560300003,0,9714,0
12.919380401000126,5025,13331,2400
12.923355277000155,20228,512,1712
12.926421061999918,176,624,0
12.930343861999972,8338,6417,1008
12.933408994999809,0,7633,0
12.93737462199988,1824,3360,0
12.940408653999839,1440,3328,0
12.944391261999954,1008,2128,0
12.948383859999922,2304,1200,0
12.951401224000165,8418,1904,2128
12.955422632000136,4337,6641,0
12.959439324999948,5377,4673,1008
12.96243492099984,6641,576,1088
12.966408324999975,13603,3952,0
12.970382849000089,18100,2704,0
12.973388067000087,1280,8370,2048
12.97741080600008,17156,18500,4064
12.981398007999815,19380,9842,0
12.985377697999866,2304,1424,4353
12.989369801000066,14835,11506,0
12.992340712999976,0,3984,0
12.995369742000094,0,2096,816
12.999393553000118,3808,3536,0
13.00242084599995,0,13683,0
13.006409383000118,1712,12563,3936
13.010387531000106,2832,912,4865
13.014382795000074,19204,1024,4353
13.018362180000167,11634,2784,8306
13.021412061999854,29703,2464,18180
13.02540819099977,28759,8754,7937
13.029397520000202,7857,4529,0
13.032401538000158,0,800,0
13.036391494999862,0,1312,1136
13.039346309999928,5985,4833,0
13.042412716999934,0,768,0
13.046407242999976,7505,5121,448
13.050385376000122,8081,1392,0
13.053359537999768,0,2784,0
13.05642200400007,6033,960,0
13.060428158999912,2016,1792,0
13.063444511999933,0,7505,0
13.067387045000032,2672,2192,0
13.070384716999797,19300,3088,0
13.074360069999784,16644,5153,0
13.07742231300017,4209,2800,0
13.081380462000197,37529,1280,1600
13.085365486999763,8978,9138,6177
13.08935680400009,17252,2672,0
13.092385867999838,800,560,6337
13.096425074999843,20020,12547,8177
13.100395519999893,1536,9666,0
13.104348658000163,13827,19732,0
13.107412302999819,4721,4465,0
13.111380187000123,432,12339,3072
13.115380147999986,10242,2736,0
13.118633478999982,768,11010,832
13.122654280000006,2544,4513,0
13.125694135999765,3904,6353,0
13.129642986999897,2656,2608,1792
13.133366550000119,5729,336,0
13.136618922999787,0,1328,0
13.139657399000043,2912,928,0
13.143361622000157,0,1424,1280
13.146641026999987,4657,8722,0
13.150685805000194,9650,7329,544
13.154397809999864,8258,7697,0
13.15742671199996,11778,7905,2816
13.161449760999858,2784,12146,2464
13.165418555000088,2592,6865,496
13.169370329999765,0,3648,2576
13.172696007000013,9618,23557,0
13.176549265000176,2480,0,512
13.179580449999776,368,7425,0
13.18272127399996,0,960,0
13.18658543499987,768,3840,0
13.18966028900013,9122,1024,608
13.193489961000068,12803,5377,1136
13.19770889900019,720,5489,7057
13.201719666999907,21349,10578,3472
13.20451683400006,0,2048,0
13.208536169000126,1920,17652,24501
13.212551652000002,0,23397,3776
13.215717537999808,0,768,2304
13.219629581999925,1360,1984,4321
13.223639115999958,2672,13747,3120
13.226739633999841,272,1456,0
13.230726233000041,5393,11122,0
13.234627019000072,912,3600,256
13.237612422999973,0,1536,16
13.241543964999892,768,1504,0
13.244690025000182,2384,9906,32
13.24861835999991,4241,480,1392
13.251640268999836,0,2896,0
13.25547999499986,1216,256,3728
13.258569732000069,0,3504,4865
13.262500079999882,208,14803,6945
13.266474176999964,3920,1280,0
13.269457585000055,0,14595,0
13.272426271999848,5665,0,0
13.276460470000075,17364,5185,4593
13.28044053900021,11954,2048,0
13.284645766999802,8658,3840,3984
13.288496599000155,28727,5377,8049
13.29152820499985,2304,15763,0
13.29548372599993,0,1648,1104
13.298545557000125,3504,768,368
13.302519648999805,6321,11346,0
13.3063850489998,7425,1232,1952
13.309546742999828,3136,1968,0
13.31338694499982,0,1296,0
13.316495672000201,528,2560,0
13.320384087000093,2208,1184,0
13.32346769500009,3408,4000,0
13.326519125999766,11458,0,0
13.330416679999871,5601,2512,0
13.333426265000071,96,752,0
13.33738931300013,5521,3632,0
13.340423292000196,2096,1712,0
13.344394160999855,2912,11298,0
13.347413526999844,0,9570,0
13.351390442000138,5489,304,10994
13.355380293000053,13379,6145,7729
13.359373191000032,2304,16724,592
13.362412185999801,5889,1520,528
13.366462127999966,20084,13555,7041
13.370465811000031,22517,5937,12146
13.374432483999954,32,0,5217
13.377449825999975,336,3664,0
13.381437063999783,8081,13427,0
13.38545459199986,19236,11266,6433
13.388443123999878,11538,336,0
13.392430839000099,19828,608,256
13.396429545000046,9282,784,448
13.399444363999919,6929,768,0
13.403418584000065,1712,6401,256
13.406379580999783,7777,4865,0
13.410384933999921,12146,1280,11746
13.414682905000063,6161,0,0
13.417695778000052,80,1632,288
13.421647574999952,848,6145,768
13.424423211999965,3216,5585,0
13.428398964999815,10802,0,0
13.431421110999963,0,8450,6129
13.435658186000182,6929,6145,5921
13.438654541999767,2720,560,0
13.44280152400006,3504,5825,0
13.44662971400021,2384,1024,752
13.44969436700012,4625,5793,0
13.453393991000212,10194,5169,0
13.456604537000203,240,1328,0
13.460450648000005,10082,3072,0
13.464712703999794,9506,6001,1344
13.46759761300018,0,3600,0
13.470772151999881,13203,512,0
13.474756492999859,4801,3104,0
13.478518974000053,1104,6513,0
13.481832780999866,17924,2192,1296
13.485912413999813,11762,4401,0
13.489634064999791,11826,1968,0
13.492783121999764,592,9394,0
13.496698493000167,21349,18356,0
13.499814001999766,304,2096,0
13.50372531999983,5217,11170,2048
13.507650284000192,7009,1984,0
13.510674921999907,512,10498,0
13.514870801000143,17332,8610,0
13.51779524199992,0,13251,0
13.521907250999902,10514,4161,6753
13.525817261000157,18996,48139,0
13.52889158700009,8642,2080,0
13.532888254999762,14515,6641,336
13.53671076899991,2064,1248,4257
13.540723098999933,18564,6545,0
13.543780738999885,8850,2192,0
13.547638860999996,6113,5745,0
13.551720207000017,13811,1264,1792
13.554870818999916,4145,3328,2528
13.558773202999873,16628,4785,8610
13.561906693999845,0,0,0
13.565661764000197,1280,0,6865
13.569847884999945,16644,4353,4465
13.572783834999882,10850,5073,0
13.576703658000042,2768,3232,6225
13.58085085599987,17924,15251,0
13.583949346999816,0,7425,12403
13.587918832000014,13059,4337,6097
13.59172694100016,9890,416,1792
13.595721776000119,3488,1296,23925
13.599760741999944,13347,24389,8754
13.602819812999769,0,1184,1696
13.606826844999887,10354,12210,1712
13.610764649999965,7729,1024,5073
13.613839092000035,11842,0,0
13.617874809000114,4497,1520,0
13.621694939999998,22421,5809,736
13.624932396000077,13075,768,0
13.628890355999829,18164,1312,1280
13.632685841999773,4465,4241,7153
13.63657344100011,9266,7953,0
13.639809984999829,12274,2304,0
13.643704080000134,35080,26374,0
13.647795037999913,4641,14099,27814
13.651616904000093,27126,32119,288
13.65572150600019,29623,2560,2880
13.658846644999812,0,1808,2656
13.662832083000012,13523,4273,0
13.666729948000011,6209,2816,7361
13.6699612970001,30503,8498,4833
13.673931554999854,7073,1744,2352
13.677789915000176,3984,7425,18148
13.681900386000052,32631,3616,768
13.684811902000092,0,1072,5025
13.68869979200008,16884,2304,13411
13.692703178000102,6865,4561,9746
13.696596219000185,16,25606,0
13.700550979000127,1968,6001,21781
13.703757518000202,2304,4369,2320
13.707606343999942,96,16724,0
13.71087278999994,8049,8850,0
13.71453871299991,0,6337,0
13.71754625099993,288,2464,0
13.721468905000165,2048,2960,1824
13.724540984000214,0,3840,12066
13.728479790000165,10418,7697,1808
13.732609451999906,1024,22453,0
13.736585237999861,1024,1344,4993
13.74068001500018,11986,14339,2576
13.743594905000009,2320,1936,80
13.747757540999828,3328,13379,1248
13.751747488000092,8001,15619,8546
13.755658635000145,7649,256,3232
13.759605602000192,3328,9394,880
13.76275103099988,19444,33768,0
13.76662549799994,5873,1792,0
13.77049705599984,30311,7025,5121
13.773651539000184,20853,11954,0
13.777666256999964,5105,22757,18260
13.781672165000145,22549,13843,1216
13.785674614000072,13139,5857,6897
13.789740211000208,10658,256,5889
13.79361390699978,10802,6609,7793
13.796758828999828,0,13059,0
13.800630269000067,4064,3808,816
13.804789247999906,10770,3616,16
13.807914339000035,3104,2688,0
13.811852456999986,1712,4641,5121
13.815764132999902,12627,4673,0
13.818774420999944,15203,8033,0
13.822849094000048,2256,48,6321
13.82661822,14435,2832,15859
13.830644496999867,13299,2160,4705
13.833834250000109,0,672,0
13.83676659699995,288,7553,0
13.840796279000187,13571,624,0
13.843751519999842,1328,912,0
13.847847226999875,7617,1424,0
13.850688037000054,0,1280,0
13.854828545000146,0,11346,2208
13.858784215000014,12595,1280,5345
13.861777474000064,64,6225,0
13.865868163999949,14995,8898,3888
13.869652785000198,27238,3216,0
13.872715152000183,1904,3664,0
13.876743196999996,3568,2016,0
13.880819447999784,37897,14339,2560
13.883673599999838,65535,4465,0
13.887767581999924,6193,800,0
13.891798789999939,11010,3520,10242
13.8949329269999,2560,9314,4897
13.898756009999943,10866,3728,0
13.902850231999764,16756,8770,4273
13.905861590999848,0,3344,4113
13.909679378999954,7201,4177,0
13.91373129700014,6625,2352,0
13.916896180000094,2256,9538,0
13.919884916999763,0,1040,0
13.923888789000102,1024,11522,1808
13.927645615000074,240,5025,0
13.930887920999794,9298,4417,0
13.933951990999958,0,2768,0
13.93778180399977,1392,2864,2000
13.941848156000106,23829,7505,0
13.945724116999827,12691,2080,0
