time,emg1,emg2,emg3
0.004260162999798922,1248,176,0
0.007313133000025118,1088,256,0
0.010305023999990226,6033,0,0
0.01427732999991349,1808,6625,240
0.017260008999983256,768,1248,0
0.021228912999958993,2736,5425,0
0.024265418000140926,0,3216,0
0.02825316300004488,3328,2816,0
0.031282965000173135,4865,1712,0
0.03428558999985398,0,880,0
0.03829670300001453,2144,2816,0
0.042202350000025035,3568,1376,0
0.045266241999797785,32,3872,0
0.04825219799977276,3440,2544,0
0.052252591000069515,6257,5457,0
0.055265357999815024,0,1328,0
0.058249222000085865,912,0,0
0.06222476999982973,6369,4097,0
0.06527435999987574,256,4145,0
0.06925325100019109,5425,3328,0
0.07324420899976758,2304,1808,0
0.07626726799981043,848,2720,0
0.08024487200009389,1440,1808,0
0.08324474800019743,4337,2416,0
0.08722794599998451,3616,2816,0
0.09025858599989078,3872,2400,0
0.0932797649998065,0,2112,0
0.09821366000005582,0,6833,0
0.10028879399988,2352,1680,0
0.10422199599997839,704,4913,0
0.10750177099998837,1840,3248,0
0.1114992960001473,4753,2800,0
0.11453972499975862,0,1872,0
0.11756945900015126,0,1760,0
0.12156130299990764,1904,2256,0
0.12456753200012827,752,3568,0
0.12830846599990764,3920,3008,0
0.131539556000007,3984,2096,0
0.1356010200001947,864,1328,0
0.13838532999989184,0,1536,0
0.14257862099975682,3824,2304,0
0.1454829190001874,16,3424,0
0.1494215230000009,2304,1280,0
0.1526330249998864,3600,2656,0
0.15647184299996297,1088,960,0
0.15953711600013776,4048,2544,0
0.1634992770000281,3440,2416,0
0.16660865199992259,2480,3328,0
0.17056069699992804,3840,2560,0
0.17363392100014607,2736,2144,0
0.1767187720001857,0,944,0
0.18075306899982024,3104,6561,0
0.1838072679997822,768,2864,0
0.18772577199979423,3328,7793,0
0.19083215099999506,5025,1472,0
0.1947409350000271,3136,3440,0
0.19780439599981037,400,928,0
0.2017310669998551,1136,1792,0
0.20465023199994903,352,3120,0
0.20856806299980235,5345,2256,0
0.211825202,3584,2304,0
0.21558656800016252,0,6193,0
0.21865385899991452,1296,1904,0
0.22265568000011626,4145,3104,0
0.22562526899992008,656,2448,0
0.22968637799976932,2736,2080,0
0.23272317900000417,1792,2000,0
0.2364497720000145,544,704,0
0.23961830700000064,1728,1616,0
0.243705559999853,1872,2720,0
0.24670289300001969,2016,3072,0
0.2506973139998081,4465,1504,0
0.25367712199977177,2000,1024,0
0.2576214929999878,0,992,0
0.2607785469999726,3600,3056,0
0.2645584339998095,2144,3168,0
0.26779046999990896,4689,4273,0
0.27172492099998635,5809,2288,0
0.27464109399988956,768,1872,0
0.27845154799979355,128,1296,0
0.28162276100010786,5377,2864,0
0.2854659740000898,176,3840,0
0.28847773100005725,3216,3152,0
0.292440483000064,3312,992,0
0.2955355270000837,2736,2160,0
0.29946767000001273,304,2816,0
0.30261140399989017,6817,2848,0
0.30646703999991587,1312,2176,0
0.309564797999883,3328,2224,0
0.3133948690001489,2192,2112,0
0.3164188569999169,496,1120,0
0.3203579760001958,768,1584,0
0.32337876800011145,2272,2608,0
0.32755977199985864,2592,4048,0
0.33062416399980066,4048,2144,0
0.3343108469998697,768,1328,0
0.33759057399993253,704,1360,0
0.341556397000204,1968,2352,0
0.3443747189999158,1376,3280,0
0.3485405440001159,3344,1968,0
0.3516160399999535,5377,2624,0
0.35433196899975883,0,256,0
0.3585765640000318,224,4961,0
0.3616422310001326,3184,1712,0
0.36571725800013155,256,6865,0
0.3687101470000016,5649,3120,0
0.372596607000105,3488,880,0
0.3756499179999082,816,1200,0
0.37955780799984495,240,2048,0
0.38270892399987133,1840,3024,0
0.38671770100017966,1808,4865,0
0.38962351999998646,2128,1776,0
0.39357066799993845,2672,928,0
0.3967881150001631,592,1168,0
0.4006916530001945,544,752,0
0.4037536139999247,2192,3232,0
0.4075657889998183,1968,2848,0
0.4106328110001414,3904,1568,0
0.4145295289999922,608,1520,0
0.41778515799978777,256,1280,0
0.4214856039998267,2352,1792,0
0.4246388820001812,752,4097,0
0.42856558599987693,2464,2224,0
0.43159812900012184,5425,672,0
0.4345935860001191,720,992,0
0.4386008970000148,4113,4385,0
0.442686551999941,4177,2416,0
0.4457655259998319,3024,4577,0
0.4494306759997926,4513,2768,0
0.4526632359998075,3952,1616,0
0.4566521130000183,272,1024,0
0.45959752799990383,1904,2304,0
0.4636987260000751,2160,3424,0
0.4667880389997663,2224,3376,0
0.4705960299997969,2912,1680,0
0.47380815099995743,1200,2224,0
0.4777094760002001,1280,160,0
0.48068920600007914,2896,2544,0
0.48471343800019895,1024,4833,0
0.4877905540001848,4433,2720,0
0.49148128600018026,6705,3296,0
0.4944884930000626,96,752,0
0.49861972500002594,928,1088,0
0.5017856409999695,4385,2352,0
0.5055242309999812,592,4080,0
0.5086201770000116,5681,2576,0
0.5125943489997553,5041,2416,0
0.5156335339997895,736,864,0
0.5194823309998355,1280,2016,0
0.5227645149998352,4609,4305,0
0.5266611329998341,1712,3104,0
0.5295971689997714,1280,1792,0
0.5336219989999336,1296,240,0
0.5366815239999596,0,1424,0
0.5395816249997551,608,2000,0
0.5437093820000882,1584,2048,0
0.5468098269998336,2816,3280,0
0.5505913530000726,2544,6625,0
0.5536320589999377,928,976,0
0.5576264830001492,0,1792,0
0.5606011410000065,4113,2304,0
0.5646636589999616,960,2048,0
0.5677744439999515,2384,3248,0
0.57157179800015,7281,2912,0
0.5746376550000605,1280,1808,0
0.5776754469998195,0,1024,0
0.5815866049997567,2864,4177,0
0.5846633820001443,768,3520,0
0.5885146420000638,5393,6577,0
0.5915396489999694,4209,2640,0
0.5954617339998549,3216,3072,0
0.5984523890001583,0,1216,0
0.6023706080000011,2512,2512,0
0.6054115540000566,1584,3184,0
0.609340247000091,3232,8738,0
0.6125542760000826,2224,1936,0
0.6166174420000061,3888,2576,0
0.6205425499997546,1824,2624,0
0.6236577760000728,3552,3888,0
0.6276183589998254,3472,3328,0
0.6306208279997918,4337,2048,0
0.6345078139997895,1040,2656,0
0.6373186299997542,688,1328,0
0.6416252559997702,2256,1984,0
0.6446467289997599,1088,2720,0
0.6485331519997999,3824,3280,0
0.6516082749999441,4545,2032,0
0.6545275069997842,0,528,0
0.6585216319999745,6113,4161,0
0.6624412709998069,2896,1728,0
0.665497829999822,3840,4097,0
0.6694213380001202,2464,1024,0
0.6726645640001152,3376,1552,0
0.6757409339998048,0,1504,0
0.6794782590000068,0,5121,0
0.6827185610000015,5121,2768,0
0.686585500000092,1840,3696,0
0.6896339240001907,1280,960,0
0.6936976609999874,496,1520,0
0.6966559180000331,720,1536,0
0.7004157659998782,576,1040,0
0.7035281869998471,1952,2480,0
0.7074611550001464,3120,4016,0
0.7104846140000518,4048,1952,0
0.7144912089997888,672,1424,0
0.7175673970000389,0,1760,0
0.7207560090000698,3824,1280,0
0.724582115999965,1968,5889,0
0.7276475359999495,5553,2224,0
0.7316154790000837,6209,2864,0
0.7348363510000127,0,1600,0
0.7385171139999329,768,1456,0
0.7418096329997752,3088,912,0
0.7457044309999219,208,4273,0
0.7485437069999534,5473,2816,0
0.7526775030000863,1680,880,0
0.7556691260001571,1024,1280,0
0.7593737319998581,976,912,0
0.7625922100000935,3632,3200,0
0.7663050850001127,352,3936,0
0.769513151999945,4577,1728,0
0.7735733969998364,816,1632,0
0.7765559459999167,1344,1744,0
0.7805825790001109,1888,1136,0
0.7835910489998241,2304,1760,0
0.7874840680001398,2608,3120,0
0.7906499629998507,2864,2160,0
0.7945660029999999,1184,784,0
0.7973395949998121,0,0,0
0.800572258000102,5681,2048,0
0.8044194379999681,0,3792,0
0.8074501569999484,3216,3232,0
0.8115145679998932,6241,3104,0
0.8147555450000254,1456,1776,0
0.8183967420000045,672,1216,0
0.8215706440000758,3504,2096,0
0.8254640599998311,560,1968,0
0.828655106000042,5249,3856,0
0.8326273779998701,3552,2896,0
0.8356213590000152,0,544,0
0.8386709040000824,576,1552,0
0.8426189619999604,4945,1520,0
0.8456163450000531,1408,3536,0
0.849443828999938,3680,2288,0
0.8527163140001903,2400,1952,0
0.8565213669999139,0,4193,0
0.8595689640001183,1280,1936,0
0.8634927680000146,2400,2976,0
0.8666299779997644,2672,2816,0
0.8704779710001276,2304,2768,0
0.8736334519999218,752,720,0
0.8766443720001007,0,1392,0
0.8805710359997647,8754,4337,0
0.8844981849997566,2128,4865,0
0.8875380899999072,3456,3040,0
0.8914334020000751,5777,2992,0
0.8945012379999753,1696,2080,0
0.8974482700000408,0,1280,0
0.9013655839999046,928,6001,0
0.9043543110001337,16,3088,0
0.9085887870000988,4865,3600,0
0.9114813269998194,4305,2048,0
0.9154673799998818,224,976,0
0.9185797720001574,768,2304,0
0.9225690960001884,2816,2480,0
0.9255128499999046,2208,4113,0
0.9295477689997824,3152,1488,0
0.9325859169998694,768,1856,0
0.9355842690001737,0,816,0
0.9393349619999753,0,5105,0
0.9424066380001932,6145,2560,0
0.9464744179999798,1728,3664,0
0.9494591980001132,2096,1824,0
0.9534339580000051,2736,1744,0
0.9566723080001793,528,1200,0
0.9607313970000178,1792,1792,0
0.9636403780000364,1792,3312,0
0.9677384390001862,5969,2896,0
0.9708966690000125,5185,1488,0
0.9748110830000769,768,6689,1024
0.9778212910000548,0,3360,0
0.9815915670001232,1904,8450,0
0.9848020680001355,0,3312,0
0.9884982389999095,5921,3648,0
0.9917020050002066,5105,2224,0
0.9948221360000389,0,368,0
0.9987792080000872,2960,3360,0
1.002515356999993,3792,1680,0
1.0056417790001433,2816,3536,0
1.0094531979998465,3072,2384,0
1.0127222999999503,2304,1568,0
1.0158767259999877,0,848,0
1.0194718379998449,288,1120,0
1.022705866999786,2576,2400,0
1.026649604999875,2224,3344,0
1.0295824400000129,2864,2608,0
1.0335211589999744,1792,7153,0
1.036591610999949,0,688,0
1.0404964969998218,768,1456,0
1.0437352989997635,3088,3472,0
1.047501954999916,2160,2976,0
1.050760710999839,4529,2464,0
1.0545017109998298,2304,704,0
1.0577393240000674,144,1488,0
1.061660413000027,2560,2304,0
1.0646232069998405,1184,2304,0
1.0686515849997704,3328,3376,0
1.0716187570001239,4465,1024,0
1.0747746299998653,0,848,0
1.078676944000108,608,5233,0
1.0818121829997835,3456,1616,0
1.0856916520001505,1584,5537,0
1.0886424509999415,3552,2480,0
1.0926280459998452,5489,4897,0
1.0958967800002029,304,1168,0
1.0995153720000417,2080,4353,0
1.103478473999985,4097,3328,0
1.1067482299999938,2864,2736,0
1.1105375070001173,3072,2128,0
1.1137666979998357,1808,1792,0
1.1168152959999134,240,768,0
1.1206114719998368,4113,3040,0
1.1237431210001887,256,3440,0
1.1278063650001968,4561,5585,0
1.1316874730000563,6161,3040,0
1.134804235000047,2528,2400,0
1.1378601689998504,32,192,0
1.1417483519999223,1280,5745,0
1.144862423000177,592,3040,0
1.1487780399997973,6929,1952,0
1.1518389580000985,3616,1696,0
1.1556590929999402,0,3328,0
1.1586503300000004,1024,2416,0
1.162609712000176,4064,2208,0
1.165626009999869,208,3408,0
1.1695415529998172,3904,2016,0
1.172708029000205,2864,768,0
1.1764761670001462,672,480,0
1.1796259150000878,2896,3024,0
1.1835421760001736,1872,3056,0
1.1866138850000425,2464,3904,0
1.1905574150000575,3216,2016,0
1.1935360130000845,2048,2272,0
1.1964775870001176,0,512,0
1.2004453089998606,1296,5201,0
1.2044955589999518,3328,3312,0
1.2076205029998164,3792,3840,0
1.211523527999816,5457,1328,0
1.2145860999999059,1120,1840,0
1.2176585540000815,0,496,0
1.2215783349997764,2416,1312,0
1.2245934200000193,832,3600,0
1.228572467000049,4577,3440,0
1.2315726460001315,4385,1952,0
1.2354970719998164,64,656,0
1.2385649230000126,0,1616,0
1.2415833820000444,2848,3072,0
1.245578063999801,5329,4177,0
1.2494077629999083,3344,2528,0
1.2526047999999719,4529,3024,0
1.255432257999928,0,0,0
1.2587057549999372,0,256,0
1.26271195299978,5297,1264,0
1.2658827599998403,176,3584,0
1.2695333030001166,2816,1872,0
1.2727366290000646,2848,1536,0
1.2766934470000706,0,992,0
1.279665052999917,4273,1792,0
1.2837338449999152,1824,3312,0
1.286793278999994,2560,2864,0
1.2907184629998483,3216,1696,0
1.2938413719998607,1024,2480,0
1.2968823900000643,0,1280,0
1.300809493000088,7121,3824,0
1.3045505250001952,1584,2224,0
1.3077902240002004,3840,3024,0
1.3115816469999118,5921,1888,0
1.3148144450001382,992,1488,0
1.318583340999794,464,1280,0
1.3215784109997912,4929,3088,0
1.3256663229999504,1280,3776,0
1.328734872000041,4305,2672,0
1.3325494919999983,3072,992,0
1.3357571410001583,1632,1328,0
1.339444874000037,528,1664,0
1.342675823999798,6545,1632,0
1.346497191999788,1888,3040,0
1.3495223350000742,1616,2256,0
1.3536883090000629,2704,1216,0
1.3565816020000057,0,1280,0
1.3595745220000026,0,2080,0
1.3637034819998917,2448,2640,0
1.3667648509999708,2528,3072,0
1.3707052459999431,3280,2448,0
1.3738824030001524,1136,1520,0
1.3777281689999654,224,4161,0
1.3808021549998557,2480,1520,0
1.3846925449997798,0,6353,0
1.3877653979998286,2768,3760,0
1.3915061299999252,7089,2048,0
1.394702529999904,0,0,0
1.3977461169997696,368,256,0
1.4016323519999787,3152,1744,0
1.4046195830001125,944,4016,0
1.4086702009999499,2816,2912,0
1.4117748429998755,4913,1520,0
1.4146225750000667,0,512,0
1.4185023029999684,48,3824,0
1.4217954360001386,4721,864,0
1.4257152549998864,320,2448,0
1.4288073389998317,4961,3232,0
1.4326222849999795,2304,1456,0
1.4358623279999847,256,880,0
1.4394654540001284,1024,624,0
1.4426985370000693,6369,3072,0
1.4465459409998402,688,2352,0
1.4495752749999156,1792,2848,0
1.4535007549998227,1712,1440,0
1.4567166010001529,368,1376,0
1.4605232949998026,1072,816,0
1.4636244359999182,3648,3296,0
1.4675255460001608,1232,1792,0
1.4706773930001873,5089,2304,0
1.4745331610001813,1024,2816,0
1.4776604990001942,688,1280,0
1.4815588970000135,3216,1408,0
1.4846580759999597,1808,4353,0
1.4884823829997913,2096,1504,0
1.491484779000075,5105,2352,0
1.4944808440000088,0,0,0
1.498371503999806,96,912,0
1.5016491769997629,5153,2928,0
1.504440195999905,0,2896,0
1.5085882729999867,6241,3248,0
1.51160672900005,3008,592,0
1.5155919270000595,608,5281,0
1.518596529000206,464,1280,0
1.5225331649999134,4849,2768,0
1.525640926000051,32,2784,0
1.5294503009999971,3728,2512,0
1.5326725810000426,1632,1680,0
1.5365274129999307,624,768,0
1.5394811709998066,2816,2784,0
1.5436114350000025,4289,1552,0
1.5465819629998805,2688,2928,0
1.5506896960000631,3072,1520,0
1.5537163109997891,464,944,0
1.5566714000001411,0,1104,0
1.5608063979998406,768,1104,0
1.563855214999876,2480,1872,0
1.5676712989998123,3072,2544,0
1.570933431999947,6369,1888,0
1.574768684999981,912,4593,0
1.577827162000176,0,720,0
1.5816275389997827,3904,1280,0
1.5848398349999115,1552,2416,0
1.5886299230000986,4305,2960,0
1.5918194740002036,6705,2864,0
1.5948919160000514,0,304,0
1.5987655979997726,0,5377,0
1.601852592999876,4417,1792,0
1.6055086910000682,560,3312,0
1.6087806880000244,3920,2032,0
1.6126090550001209,4000,1408,0
1.6156185979998554,0,1936,0
1.6194316679998337,1392,2112,0
1.6227896499999588,5921,3248,0
1.6265626039999006,1648,3296,0
1.6295285810001587,2544,2272,0
1.6335367090000545,2656,1808,0
1.6366489629999705,0,1104,0
1.6406586279999829,3936,1712,0
1.6437653520001732,4305,3936,0
1.647698284999933,2064,2816,0
1.650751947000117,5089,1392,0
1.6544934869998542,1040,1424,0
1.6575318939999306,336,2688,0
1.6616842990001714,3280,1504,0
1.6645690559998911,768,3328,0
1.6686905339997793,3056,2096,0
1.671761632000198,6161,1856,0
1.6754968340001142,368,400,0
1.6787813860000824,2528,1424,0
1.682579657000133,3840,1616,0
1.6857827329999964,2736,3488,0
1.6895114570002079,3152,1408,0
1.69282229800001,2240,1232,0
1.696601200999794,768,416,0
1.6995988959997703,2400,3328,0
1.703541204999965,2400,1168,0
1.7067026009999609,3024,3376,0
1.7107744350000758,3472,1584,0
1.71369587900017,2016,1056,0
1.717493210000157,768,1024,0
1.7207152229998428,3280,768,0
1.7245015359999343,1200,2816,0
1.7276082059997862,3760,2544,0
1.7315269229998194,6657,2064,0
1.734530358000029,0,672,0
1.7377396799997769,0,800,0
1.7414658500001678,3584,2000,0
1.744598994000171,1648,2080,0
1.7484335180001835,3216,2896,0
1.7514326139998957,4321,1360,0
1.755382223000197,256,1120,0
1.758396669999911,256,1520,0
1.7623200980001457,3136,1760,0
1.7654328049998185,672,3200,0
1.7693668980000439,3952,624,0
1.7726277709998612,3184,1792,0
1.7767007530001138,768,1728,0
1.7793827469999997,2320,1696,0
1.7836466959997779,3120,1792,0
1.7865765020001163,2512,3488,0
1.7905910479998965,3232,1392,0
1.7936483299999963,1952,3808,0
1.7976126730000033,256,912,0
1.8003680840001834,2912,3056,0
1.8043548949999604,640,3200,0
1.8075744019997728,4625,3264,0
1.8115328559997579,6449,2032,0
1.8146847479997632,1456,1040,0
1.8175204290000693,0,336,0
1.8214738940000643,3104,5985,0
1.824492070999895,592,3168,0
1.8284846739998102,3840,5217,0
1.8315194540000448,4097,768,0
1.8354392500000358,144,4817,0
1.838518496999768,1568,976,0
1.8424570870001844,2272,1488,0
1.8455176839997876,1680,1792,0
1.8494435200000225,2352,7473,0
1.8525027239998053,1936,1376,0
1.8565839259999848,5105,2848,0
1.8594960209998135,160,2784,0
1.8636880210001436,2608,5009,0
1.8676417910000964,1744,2224,0
1.8707282880000093,6241,2320,0
1.8746454570000424,2544,1104,0
1.8776532719998613,1104,688,0
1.881628856000134,4097,1376,0
1.8846855299998424,2480,3536,0
1.8886397599999327,3328,2144,0
1.8915973389998726,4625,1184,0
1.8946846019998702,0,624,0
1.8986496560000887,0,5857,0
1.9017075279998608,3616,1456,0
1.9056184760001997,1280,3152,0
1.908788634999837,4257,2336,0
1.9126672249999501,2512,1968,0
1.9157171000001654,944,816,0
1.9189070229999743,0,3536,0
1.9226948179998544,3696,5281,0
1.9267162639998787,1888,2640,0
1.92964227199991,4577,2304,0
1.933557750000091,1904,1312,0
1.9366422799998873,768,1424,0
1.9396528190000026,800,1360,0
1.9437617270000374,7329,5089,0
1.9476697400000376,2816,2544,0
1.9506731530000252,5665,2688,0
1.9545823150001524,1536,1504,0
1.9576832759998979,0,1808,0
1.9607725410000967,2048,2448,0
1.964665137999873,0,4241,0
1.9677104970000983,3824,2912,0
1.9716259619999619,6385,2304,0
1.9746959059998517,1264,912,0
1.977724771999874,0,48,0
1.9815315850000843,256,2016,0
1.984720740999819,752,2832,0
1.988622051999755,6673,4353,0
1.9915750049999588,4016,1808,0
1.9945271000001412,0,944,0
1.9984579659999326,4161,2512,0
2.002375522999955,3328,1856,0
2.0056133039997803,1792,3488,0
2.0094500569998672,3584,608,0
2.012599049000073,3104,1520,0
2.015587602999858,0,816,0
2.018600315000185,0,720,0
2.022432489000039,7953,3840,0
2.0254252029999407,2064,352,0
2.0294043690000763,5041,3072,0
2.0333729260000837,2304,1792,0
2.0364293530001305,1296,2048,0
2.04068252199977,1856,944,0
2.0436885979997896,4897,3312,0
2.0476540899999236,1904,2832,0
2.050712131000182,5473,3072,0
2.054544877999888,768,2416,0
2.0575473150001926,1520,1184,0
2.0616367369998443,3280,1136,0
2.06468433200007,48,3088,0
2.068498046000059,3568,1856,0
2.0716971110000486,5745,2160,0
2.075688592000006,1024,2048,0
2.078695246999814,944,816,0
2.0824896710000758,2720,1504,0
2.0858401219998086,2864,3072,0
2.0895586440001352,4865,1280,0
2.0927781030000006,3568,2272,0
2.0967040239997914,336,1056,0
2.099746578000122,1712,2944,0
2.1036261839999497,3184,2240,0
2.1067589019999104,2240,3600,0
2.1107958930001587,2528,3216,0
2.113897115999862,2064,1792,0
2.1176141020000614,0,3328,0
2.1206916000001,4097,2816,0
2.1246020819999103,1200,3104,0
2.127727041000071,4657,3152,0
2.131540302999838,5457,1552,0
2.134681856000043,992,1280,0
2.137684480000189,0,1456,0
2.141637259000163,3232,5137,0
2.1448907320000217,256,2896,0
2.1488153710001825,6945,6497,0
2.151906894000149,4705,1888,0
2.1556696849997934,3760,2816,0
2.159506681000039,1040,2304,0
2.162807834999967,3536,2368,0
2.1667209500001263,1200,2240,0
2.169675135000034,2736,2048,0
2.1737689470000987,1216,1712,0
2.1768132590000278,0,1024,0
2.180720201999975,1632,1840,0
2.183810785999867,6401,3328,0
2.18749843400019,4417,3456,0
2.1906998720000956,3744,1808,0
2.1947405020000588,1872,1792,0
2.197816806999981,0,1392,0
2.200892590999956,2672,1584,0
2.2045999749998373,4817,4273,0
2.2085329910000837,5873,2848,0
2.211834784000075,6337,2640,0
2.2148809049999727,0,2000,0
2.218693945999803,272,1040,0
2.221740302999933,3680,1456,0
2.2256396190000487,3120,4529,0
2.228768037000009,3488,2672,0
2.232690066000032,3488,5473,0
2.2356957450001573,1024,976,0
2.239550324999982,1440,6145,0
2.2428282010000657,3808,2320,0
2.246658903000025,5121,3616,0
2.249747988999843,1360,928,0
2.2535878550002053,7329,4433,0
2.2567353019999246,96,512,0
2.2607685729999503,2272,1248,0
2.2638919279997936,1456,3760,0
2.267773120000129,6177,5121,0
2.2707833800000117,2672,2000,0
2.27480793299992,1872,5905,0
2.277931859000091,672,1056,0
2.281648615999984,2800,4689,0
2.284752629000195,1264,3088,0
2.288598030999765,5377,3936,0
2.2925702640000054,3504,1888,0
2.2956381069998315,2304,2544,0
2.2995227129999876,352,1552,0
2.3026412240001264,5169,3552,0
2.306427547000112,480,2816,0
2.3095368220001546,2912,2416,0
2.313434159999815,3440,1888,0
2.31644543099992,432,1024,0
2.3194722799999,112,2208,0
2.3234143979998407,6161,4353,0
2.3276449569998476,2320,2688,0
2.3306750110000394,5009,2384,0
2.334588136000093,1424,1536,0
2.3376921899998706,192,960,0
2.34156040400012,3488,1808,0
2.344707929999913,1920,3312,0
2.3486907779997637,3328,2672,0
2.351669946000129,4129,1040,0
2.3547380519999024,80,688,0
2.3586508359999243,768,4865,0
2.3616594139998597,4048,1248,0
2.3657039750000877,0,5985,0
2.368690497999978,3184,1952,0
2.3726557179998053,3408,912,0
2.375730084999759,0,1056,0
2.3785781659998975,0,1184,0
2.3825896379998994,4561,2128,0
2.385773085999972,1200,2352,0
2.3895181379998576,2912,1456,0
2.392741074999776,1840,2048,0
2.396634300000187,0,224,0
2.3996685719998823,1008,2864,0
2.4036563889999343,4385,1680,0
2.4068601690000833,2464,2832,0
2.410788168000181,2624,1808,0
2.413925450000079,1792,1776,0
2.4169042089997674,0,816,0
2.4206217500000093,1072,3984,0
2.4238818009998795,1744,3328,0
2.4278508160000456,5009,2304,0
2.431612182000208,6705,1328,0
2.4347643269998116,2304,2128,0
2.4379453880001165,0,848,0
2.4418310949999977,1264,1616,0
2.4449139140001535,1040,2560,0
2.448823647000154,5409,6849,0
2.4519370590001017,4145,368,0
2.45571522299997,272,1184,0
2.4587259179998,0,1296,0
2.46279965299982,3920,1280,0
2.4659039009998196,0,2000,0
2.4689451660001396,6273,2768,0
2.4764660390001154,2160,4769,0
2.477627506999852,640,1984,0
2.479580765999799,1792,5489,0
2.482677911999872,1840,1632,0
2.486763351999798,5681,3696,0
2.489705375000085,944,1856,0
2.4936259440000867,4433,3424,0
2.4967004800000723,0,1360,0
2.5005864220001968,528,1168,0
2.503836518999833,2096,2144,0
2.507475025000076,2464,3760,0
2.5105074419998346,5825,3184,0
2.5144476669997857,1664,800,1280
2.517442935999952,0,1360,0
2.5213893730001473,2048,7633,0
2.5243921450000926,1248,3248,0
2.528402993999862,5041,5889,0
2.531385023999974,4673,1200,0
2.5353861449998476,3424,2816,0
2.5393542830001934,2336,1760,0
2.542394865999995,3376,2736,0
2.5463641289998122,976,3232,0
2.549351323999872,2160,3248,0
2.553363134999927,1184,800,0
2.556414317999952,1568,2144,0
2.5603912239998863,496,1536,0
2.563412565999897,5457,3632,0
2.567394234999938,1296,2272,0
2.570390193000094,4305,2480,0
2.5743970409998838,1792,1888,0
2.577385956999933,0,1440,0
2.5804276969997773,3088,1952,0
2.584392143000059,4289,4097,0
2.5883506619998116,5233,2528,0
2.591381649000141,4865,1968,0
2.5944069709998985,0,1200,0
2.598984468999788,784,7025,0
2.6014241759999095,3072,1936,0
2.605458387999988,1712,3296,0
2.608693660999961,4481,2208,0
2.612669760999779,2752,6129,0
2.615689070999906,256,256,0
2.618720098999802,0,48,0
2.622652108999773,5809,5377,0
2.625679291999859,1104,3184,0
2.6294051579998268,3248,3312,0
2.633714671999769,3792,2016,0
2.6365703569999823,1792,1472,0
2.640711789999841,784,1808,0
2.643728491999809,4417,3440,0
2.6475742900001933,3952,3072,0
2.6507811460000994,4689,1488,0
2.6546121850001327,608,816,0
2.6576577669998187,2352,2128,0
2.6616832320000867,3168,1584,0
2.664730385999974,1328,2848,0
2.6685928960000638,4865,2464,0
2.6719208210001852,3504,1712,0
2.674953344000187,0,544,0
2.6786997479998718,0,5633,0
2.6818844519998493,4177,1008,0
2.6857892269999866,1120,4273,0
2.688792195000133,5153,2896,0
2.692742676999842,4273,2384,0
2.6959126920000926,0,768,0
2.698823086000175,448,1328,0
2.702879639999992,9874,3840,0
2.705857749000188,416,2880,0
2.709605290000127,3360,3920,0
2.713741483999911,2160,1104,0
2.7167614469999535,1568,1728,0
2.720569833999889,768,1280,0
2.723745147000045,3488,3216,0
2.726819154000168,176,2144,0
2.7308757780001542,5889,3152,0
2.73379635099991,768,1040,0
2.7377234129999124,3616,3296,0
2.741617450999911,3296,1296,0
2.7447761100002026,2288,3536,0
2.7485983159999705,4097,1472,0
2.7516808509999464,5729,2608,0
2.7556305059997612,192,1280,0
2.7586826530000508,704,1072,0
2.762676939999892,4977,2208,0
2.765907802000129,1968,2112,0
2.7695824070001436,3888,1520,0
2.772749972999918,3152,1712,0
2.776567383999918,992,560,0
2.7796758260001297,784,2256,0
2.783737206999831,5121,2224,0
2.786740079000083,3024,3024,0
2.790812805999849,1856,1600,0
2.7938522740000735,1600,928,0
2.7967771849998826,0,1280,0
2.8008716429999367,1440,1104,0
2.803848979000122,1536,2464,0
2.807659648000026,5201,5537,0
2.810791734999839,4929,1712,0
2.8148608890001015,3136,2608,0
2.8177416819999053,640,1360,0
2.82169660999989,7073,2960,0
2.8249184289998084,0,2416,0
2.828820743000051,5281,2560,0
2.8318136110001433,3904,1200,0
2.8356949899998654,0,1008,0
2.8386890140000105,0,1280,0
2.841792410999915,3024,2064,0
2.8456906209999033,4561,4193,0
2.8495508289997815,4145,1888,0
2.8526975670001775,4129,2144,0
2.8557377980000638,112,960,0
2.8596242590001566,1632,2848,0
2.8627713609998864,3328,1712,0
2.866566837999926,4577,4385,0
2.8704531069997756,1712,1440,0
2.8735136989998864,2048,1968,0
2.8765074630000527,224,576,0
2.8804681040001014,4353,3280,0
2.8844706830000177,1376,2544,0
2.887676665000072,4129,2608,0
2.891610190999927,6097,592,0
2.894720353000139,2208,1776,0
2.8977185879998615,848,656,0
2.9016953099999228,1968,4609,0
2.9044586559998606,0,2592,0
2.9086627560000125,5617,3344,0
2.911734198999966,3984,672,0
2.9156880909999927,16,304,0
2.9186842210001487,4016,2464,0
2.9225052120000328,4257,2416,0
2.9256163760001073,256,2304,0
2.929449651000141,5377,1552,0
2.9326470119999613,3312,1824,0
2.935846201000004,32,480,0
2.9396113279999554,1136,7377,0
2.94272481400003,3024,2352,0
2.946877197000049,4353,3840,0
2.95060445099989,3120,1792,0
2.953676193999854,3120,2576,0
2.9569320249997872,0,672,0
2.960713480999857,1520,512,0
2.9639266690001023,3024,2208,0
2.967717933000131,2176,4193,0
2.970749086000069,6049,2976,0
2.9749022129999503,2464,1536,1136
2.977939822999815,0,768,0
2.9816887719998704,1024,2144,0
2.9849329079997915,1424,3216,0
2.988736837000033,5825,4433,0
2.9917114039999433,3152,608,0
2.9957243379999454,0,736,0
2.998741283000072,2048,1168,0
3.0028413099998943,2016,1824,0
3.0059418000000733,1184,1888,0
3.009645571999954,1728,992,0
3.0127263770000354,3840,1456,0
3.0167160119999608,352,800,0
3.0197111580000637,3248,2048,0
3.0237591609998162,4705,2304,0
3.026679859000069,2272,2384,0
3.0307358459999705,2576,1136,0
3.0339365929999076,1568,1456,0
3.037683143999857,352,768,0
3.0408313039997665,3808,2032,0
3.0447947299999214,208,2320,0
3.047898703000101,4625,3696,0
3.0517552490000526,7073,1792,0
3.054825714999879,1904,1712,0
3.058634367000195,400,1760,0
3.0617978710001807,4257,1872,0
3.065889309999875,1488,2624,0
3.068832132999887,4337,1792,0
3.072753799000111,4097,1376,0
3.075906955999926,688,768,0
3.0796365539999897,1296,1376,0
3.0828057600001557,4753,1904,0
3.086731822999809,1520,3536,0
3.0897247769999012,768,1392,0
3.093696723999983,2608,976,0
3.096877948999918,480,1520,0
3.1006193530001838,1248,1792,0
3.103822576999846,2736,3184,0
3.107709117000013,4209,2784,0
3.1107632759999433,4497,928,0
3.1147003699998095,2608,1840,0
3.1178972990001057,144,976,0
3.1216267059999154,5889,1104,0
3.124783010000101,640,3520,0
3.1286353559999043,5745,1808,0
3.1320011510001677,6673,1760,0
3.134907210000165,352,832,0
3.138707562000036,2752,3072,0
3.142573607000031,3728,3088,0
3.1457439750001868,3296,3728,0
3.1495838609998827,3696,1904,0
3.1526644539999324,4080,816,0
3.1557103139998617,368,1072,0
3.159565181999824,5169,3776,0
3.1634400409998307,3360,2752,0
3.166473892999875,2160,2672,0
3.1704527100000632,2304,1504,0
3.1737679670000034,1168,0,0
3.1767208020000908,0,512,0
3.1808202550000715,1216,1904,0
3.183755364999797,3312,1504,0
3.187705957000162,4369,2384,0
3.190629584999897,7473,544,0
3.194765621999977,1200,1536,0
3.1977098620000106,96,480,0
3.201639946999876,2880,1024,0
3.204801288999988,3824,4113,0
3.208667649999825,5745,2304,0
3.2116931609998574,4881,1184,0
3.2147873700000673,0,736,0
3.2186788969997906,176,1104,0
3.221721131999857,3104,1008,0
3.2256626990001678,992,4353,0
3.228676268000072,4945,1872,0
3.2325967599999785,3424,544,0
3.235682691999955,0,768,0
3.2386166149999553,0,0,0
3.241827818999809,2048,1504,0
3.2457175419999658,3408,3952,0
3.2497362539997994,4977,1808,0
3.2529447040001287,3488,2368,0
3.2557719370001905,0,912,0
3.259603949999928,1712,768,0
3.262812120000035,2816,2112,0
3.266711803999897,1776,3952,0
3.269729922999886,2896,1824,0
3.273876059000031,4369,512,272
3.2767612140000892,256,416,0
3.2806470169998647,0,1536,0
3.283900114000062,2704,2496,0
3.2876491679999162,4769,2688,0
3.2909504109998124,4625,1792,0
3.2948311509999257,656,768,0
3.297756659999777,1376,1824,0
3.300975747999928,3088,0,0
3.304888409999876,1456,6065,0
3.307989120000002,6177,2112,0
3.3117779519998294,4865,3376,0
3.3149489090001225,1056,768,0
3.3187894279999455,2768,3536,0
3.322687718999987,3840,2192,0
3.325795735000156,1792,3504,0
3.329659680000077,3184,2256,0
3.3329404969999814,3248,1504,0
3.336622590999923,224,1296,0
3.3397080390000156,4129,2080,0
3.34367905299996,2048,3248,0
3.346851033999883,1888,2480,0
3.349749748999784,48,864,0
3.3536880709998513,4337,2304,0
3.3566888229997858,0,720,0
3.360814782000034,2816,768,0
3.3639011730001585,1984,2848,0
3.367785012999775,3680,2672,0
3.370770701999845,4417,1840,0
3.374713464999786,1376,1024,0
3.3778701410001304,0,880,0
3.380961336999917,2816,672,0
3.384750284999882,1840,6257,0
3.388627386999815,6241,2848,0
3.3919015490000675,6113,2752,0
3.3948417299998255,272,1536,0
3.398889405999853,2352,2608,0
3.402645166000184,3376,1344,0
3.405785394999839,2464,2272,0
3.4096409829999175,4833,2784,0
3.4128018709998287,3216,1232,0
3.4167913709998174,496,944,0
3.4197477679999793,3728,3328,0
3.4236618899999485,2000,2752,0
3.4268140610001865,3152,3088,0
3.430609488999835,2304,2864,0
3.4338259850001123,2320,2384,0
3.4369150460001947,0,528,0
3.4406932150000102,1200,7489,0
3.443770738999774,1680,3056,0
3.4475458130000334,4689,3936,0
3.451427228999819,5073,1792,0
3.4545056369997837,2736,1280,0
3.4584499449997566,768,1024,0
3.461500501000046,4913,2480,0
3.4646735010001066,0,2256,0
3.468766553000023,5889,3920,0
3.4717366549998587,4497,1872,0
3.475761999000042,0,5361,176
3.4787294329998986,0,1504,0
3.4826888490001693,3904,1600,0
3.4858160869998756,1344,1696,0
3.4895405900001606,2864,880,0
3.4927324290001707,2208,1504,0
3.4957426599999053,0,1120,0
3.499575283000013,5921,4353,0
3.5034678789997997,3840,2816,0
3.5067702649998864,4273,4753,0
3.5107604459999493,2592,960,0
3.5136705199997778,2144,2064,0
3.5167863339997893,352,736,0
3.520801623999887,4353,3488,0
3.524722987000132,1440,2832,0
3.5276718290001554,7025,5217,0
3.531646984999952,5473,1264,0
3.5347906480001257,1360,976,0
3.53787546500007,432,544,0
3.54174037499979,2720,5569,0
3.54496792000009,0,2304,0
3.548884179000197,6321,3120,0
3.5517613460001485,5153,1856,0
3.5558797359999517,224,624,0
3.558920561999912,1024,1280,0
3.5627266229998895,3616,2816,0
3.565985515000193,992,2448,0
3.5696939190002013,3968,2384,0
3.572862172999976,1696,1456,0
3.575906254000074,0,624,0
3.5798004779999246,4961,2960,0
3.583637926999927,4449,1712,0
3.5867893129998265,5377,4048,0
3.5908366959997693,2128,1456,0
3.5939473220000764,3216,1872,0
3.597692100000131,992,1376,0
3.6009004950001327,3152,1216,0
3.60481175599989,2032,1280,0
3.6079136540001855,5729,2832,0
3.6116789500001687,4401,1536,0
3.6149467280001772,64,1392,0
3.6179431290001958,0,1072,0
3.6217453670001305,1168,2288,0
3.624973579000198,256,3328,0
3.6287284229997567,7985,2384,0
3.631843572999969,5009,1072,0
3.635616578999816,0,5377,0
3.6386291009998786,416,1584,0
3.642585810000128,3536,2096,0
3.6457619379998505,96,2528,0
3.6496051889998853,4337,1504,0
3.652794666999853,4177,1312,0
3.6558722549998492,0,1472,0
3.659686984000018,720,3664,0
3.662884458999997,3408,1040,0
3.6667640979999305,2864,8290,0
3.669837357999768,3664,2400,0
3.6739421649999713,3664,4929,0
3.67681940500006,0,1024,0
3.6807673299999806,2000,1312,0
3.683789574000002,1136,2496,0
3.687839492999956,3424,3568,0
3.690844382999785,6097,1120,0
3.6948985139997603,400,5649,0
3.6979545929998494,0,1680,0
3.7016690870000275,1760,1280,0
3.7049062579999372,1024,3264,0
3.708716371999799,3136,2496,0
3.7117449160000433,3744,1872,0
3.7156021529999634,352,96,0
3.7187044440001955,2416,2032,0
3.7226221410001017,5697,1792,0
3.725725716999932,1872,2304,0
3.729642417999912,3952,1840,0
3.732755616999839,3328,1072,0
3.7358617859999868,352,0,0
3.739721423999981,2032,4193,0
3.742710476999946,3264,2880,0
3.74658781800008,3920,3680,0
3.7504910940001537,2512,1840,0
3.7535264120001557,3232,2656,0
3.757709397999861,224,1216,0
3.760575655000139,5057,2000,0
3.7647693389999404,1696,2992,0
3.7677625219998845,3024,3840,0
3.7717150409998794,6913,1792,0
3.7747861369998645,1376,1376,0
3.7786787250001908,0,1216,0
3.78179367499979,4881,2528,0
3.7856545549998373,832,1136,0
3.7886611150001954,6865,2864,0
3.792605481999999,4401,1648,0
3.7957165650000206,1456,1632,0
3.7997084529997665,2288,1504,0
3.8026972540001225,4321,2784,0
3.8066541839998536,2512,2608,0
3.8097065940000903,944,880,0
3.813677000000098,3024,1504,0
3.8167432149998604,0,720,0
3.8198055679999925,208,560,0
3.823891492999792,2560,1904,0
3.8269975279999926,1776,2640,0
3.830849509000018,3888,1632,0
3.8339377110000896,192,2048,0
3.8376679610000792,1248,16,0
3.8410850710001796,4193,2288,0
3.843991780000124,80,2448,0
3.8477622400000655,6113,3840,0
3.851654739999958,5985,2064,0
3.854882243999782,1488,1392,0
3.8578123629999936,0,544,0
3.8619011579999096,1952,1280,0
3.86493052600008,0,2416,0
3.868762413999775,4657,2480,0
3.8719053069999063,4881,1632,0
3.8757741220001662,448,688,0
3.8789029549998304,1808,1376,0
3.882705160000114,2640,1728,0
3.8859581369997613,752,2608,0
3.8897675889998027,2592,1616,0
3.8928156219999437,3376,1632,0
3.8960704830001305,336,912,0
3.89979004099996,4465,2800,0
3.9036914680000336,2240,1456,0
3.9069622819997676,3824,3824,0
3.9106848739997986,2336,1056,0
3.9138040610000644,1776,1280,0
3.917690463999861,544,880,0
3.920777912000176,3616,3840,0
3.9249046609998004,1552,1968,0
3.9278521060000458,3744,3232,0
3.9317700460001106,6065,2128,0
3.934977543000059,272,1136,0
3.9387180069998067,352,1424,0
3.9418459680000524,4433,1888,0
3.9449622610000006,0,3920,0
3.9487715039999784,3808,6145,0
3.951847245999943,3632,960,0
3.9558797650001907,0,5377,0
3.958829788999992,0,1232,0
3.9618699699999524,4353,848,0
3.9659506339999098,1088,6513,0
3.9688725860000886,4561,2688,0
3.9727717659998234,4321,2656,0
3.9768247619999784,1552,2896,0
3.9797847780000666,2752,1632,0
3.9837235270001656,3856,1264,0
3.9867857399999593,3344,2656,0
3.9908789510000133,1296,816,0
3.9938315989998046,2256,2528,0
3.9977200230000562,512,1392,0
4.000885694999852,3040,1872,0
4.003802189999988,0,2416,0
4.007815466000011,3200,6321,0
4.010960707999857,4369,1232,0
4.014821579999989,4913,3984,0
4.01789999499988,0,848,0
4.021665759999905,2832,1024,0
4.024801156000194,0,2352,0
4.028508220999811,4129,1488,0
4.031590553000115,6353,2352,0
4.0346187370000735,0,768,0
4.0385042879997854,256,1008,0
4.041571671999918,3376,1744,0
4.045518834000177,1680,4737,0
4.048724522000157,5585,1792,0
4.05244366099987,5121,2304,0
4.055729815000177,0,1024,0
4.059439196999847,208,1808,0
4.062749771000199,6113,1536,0
4.066834547999861,1840,3296,0
4.069459405000089,1888,752,0
4.073809388999962,1888,2320,0
4.0767402510000466,0,1152,0
4.0795310140001675,1280,1024,0
4.083784365000156,6321,2640,0
4.0877646909998475,1936,3120,0
4.090762451000046,5633,1808,0
4.0946826469999,624,1216,0
4.097784153999783,1520,1040,0
4.101509706999877,2944,1024,0
4.104604157999802,256,3120,0
4.108633758999986,5473,2160,0
4.111709464999876,5377,1280,0
4.114750196999921,752,768,0
4.118742373999794,3552,2592,0
4.122759977999976,4337,1584,0
4.125790671999766,1456,2224,0
4.129618152000148,4257,1072,0
4.132876775000113,2816,1584,0
4.135888117999912,0,672,0
4.13971691200004,128,1488,0
4.1428198180001345,4385,2480,0
4.146859856999981,3808,9186,0
4.149856708999778,1568,1328,0
4.153699852000045,1632,4032,0
4.156938216000071,0,576,0
4.160719747999792,1376,1280,0
4.163956487000178,1856,2512,0
4.167838011000185,2224,3840,0
4.170852164999815,4064,1328,0
4.174876756999765,1568,608,0
4.177898582000125,0,752,0
4.180827738000062,3856,2144,0
4.184946607999791,3696,4321,0
4.188803219999954,2016,2304,0
4.191964927999834,5985,1792,0
4.195020466000187,32,1360,0
4.198806831000184,416,4769,0
4.202061262999905,2752,1408,0
4.205989133000003,2256,5665,0
4.209715287000108,4753,1808,0
4.212819550999939,5185,2448,0
4.215913217999969,0,1024,0
4.219762062999962,1824,608,0
4.222847811000065,2272,1504,0
4.22694047899995,2976,3328,0
4.229878900000131,2816,1648,0
4.233900106999954,3328,2800,0
4.236889573000099,256,1280,0
4.240912332999869,1648,8690,0
4.243978236000203,1568,2192,0
4.247921553000197,2480,5921,0
4.251015746000121,6417,1600,0
4.254928431999815,3024,2144,0
4.257822648000001,0,688,0
4.261902958000064,2800,2272,0
4.264844293999886,0,2544,0
4.268697367000186,2480,1440,0
4.272005557999819,6497,1904,0
4.275017664000188,416,864,0
4.2787479819999135,3328,2448,0
4.2827444129998185,4305,1232,0
4.285977824999918,1184,2128,0
4.289653452000039,5345,1504,0
4.292808826000055,3136,1360,0
4.295925735999845,0,656,0
4.2997024090000195,512,1072,0
4.302930538000055,2000,2816,0
4.306731634999778,3520,5377,0
4.309849806999864,1280,1440,0
4.313742295999873,2640,6065,0
4.316766106000159,0,736,0
4.320600300000024,528,992,0
4.32377819400017,4353,3232,0
4.327518889000203,2368,2960,0
4.330672133999997,5889,2560,0
4.3344633390001945,768,1280,0
4.337554591999833,960,1488,0
4.341462972000045,3712,1024,0
4.344766793999952,1888,3232,0
4.348786999999902,3488,1616,0
4.351773451000099,6241,1328,0
4.355637918999946,624,752,0
4.358643083000061,3296,2560,0
4.3628327840001475,4865,320,0
4.365754276000189,3120,3888,0
4.369821469999806,1840,1056,0
4.372766831999797,2640,2080,0
4.375874251999903,0,720,0
4.379538625999885,432,784,0
4.382701440999881,4129,1520,0
4.386707334999755,1024,3072,0
4.38960280099991,1952,1472,0
4.393668774000162,2528,1056,0
4.396830895999756,16,1712,0
4.400824919000115,1024,1024,0
4.403719177999847,1456,1888,0
4.40767062499981,2304,3792,0
4.410998503999963,6257,1680,0
4.414802790000067,1824,768,320
4.41776274599988,0,672,0
4.421914115000163,3424,1984,0
4.4249885620001805,720,3232,0
4.42888853300019,3840,2240,0
4.43195099400009,5393,1584,0
4.435701455000071,208,320,0
4.438765044999855,944,1600,0
4.442862367000089,4385,1744,0
4.445979839999836,1792,2848,0
4.449673312999948,2816,1488,0
4.4528296369999225,2208,784,0
4.456705648000025,1056,1328,0
4.459936738000124,3136,2112,0
4.463889897000172,2304,2688,0
4.466783005999787,1280,2992,0
4.4708538529998805,3568,1104,0
4.473943803000111,432,912,0
4.4776700399997935,912,1440,0
4.480963633000101,4225,1024,0
4.4848969300001045,2304,1776,0
4.48784505499998,2512,2048,0
4.491851595999833,5777,2080,0
4.494925557999977,0,768,0
4.497812093999983,704,256,0
4.5019328530001985,7233,1264,0
4.504945581999891,0,3120,0
4.508725569000035,4353,1024,0
4.5119926550000855,5393,1760,0
4.515021743000034,0,656,0
4.518013695999798,0,0,0
4.5219346489998316,2240,5553,0
4.524871539999822,480,3184,0
4.528818484000112,5409,2080,0
4.532059972999832,4577,1280,0
4.5357336269999,0,5377,0
4.538976993999768,1488,1280,0
4.542742808000185,4865,2016,0
4.545823380000002,128,2352,0
4.549906951000139,3136,1424,0
4.552920065999842,1552,3136,0
4.55668324699991,0,1184,0
4.559935989999758,2912,1424,0
4.563774363999983,4000,2560,0
4.566964296000151,1744,3152,0
4.570892768999784,1520,1424,0
4.573886649000087,2480,2240,0
4.577854568000021,0,1776,0
4.580982334000055,4273,1888,0
4.584732594999878,848,3248,0
4.5877319269998225,4032,3600,0
4.591688371000146,5809,1824,0
4.594869704999837,1904,1792,0
4.5979854610000075,0,1648,0
4.601882054999805,3808,10050,0
4.605021144000148,176,3072,0
4.608839052999883,5889,4865,0
4.611824944000091,5841,672,0
4.6156736110001475,4753,3008,0
4.6187013200001275,0,1488,0
4.622578983000039,6353,2768,0
4.625630872999864,2496,2864,0
4.629560598999888,6129,2144,0
4.632552146999842,1392,4097,0
4.6368229750000864,0,4817,0
4.639496135000172,0,1280,0
4.643547737000063,4097,2480,0
4.646871319000184,4129,4305,0
4.65084062699998,2352,2816,0
4.653646975999891,2848,1120,0
4.657774614000118,416,1632,0
4.660880221999832,4353,1136,0
4.6647575819997655,1792,2768,0
4.667820109999866,3072,3088,0
4.67180549800014,6113,1696,0
4.674731658999917,0,960,0
4.677755314000024,208,1024,0
4.681808768999872,2032,7425,0
4.684564322999904,0,2576,0
4.688702882000143,4609,2272,0
4.691604993000055,4273,1632,0
4.694619472999875,0,0,0
4.698622807999982,288,1280,0
4.701659615000153,3360,1824,0
4.705637046999982,272,3952,0
4.708770401000038,5473,2976,0
4.712680666999859,2784,1328,0
4.71576148899976,0,1024,0
4.718914000000041,1808,240,0
4.722757589000139,8514,3312,0
4.7258451449997665,704,3408,0
4.729723345999901,5553,3696,0
4.73285331399984,2304,560,0
4.736731957999837,3936,2752,0
4.740650895999806,2832,3360,0
4.743767444999776,2736,2480,0
4.747601920999841,4321,2128,0
4.750677082000038,3840,1600,0
4.754563783999856,1184,768,0
4.757569682999929,752,1632,0
4.761525297999924,2992,1584,0
4.764522198000122,416,3440,0
4.768473067999821,5441,2992,0
4.771510692999982,4305,2544,0
4.775504346000162,656,2048,0
4.778530704999866,1504,2304,0
4.7825168119998125,3584,1696,0
4.785763770999893,480,2448,0
4.789468744999795,3632,1168,0
4.792977907000022,2176,1536,0
4.795810214000085,0,528,0
4.799517928000114,0,2304,0
4.802575602000161,2944,2064,0
4.806937654000194,1136,2448,0
4.8095831720002025,1680,1536,0
4.812564206999923,0,1488,0
4.816572821000136,1888,1840,0
4.820517883999855,1536,1136,0
4.823574667999765,3184,2384,0
4.827555715000017,2128,3808,0
4.830586153999775,5233,1536,0
4.833579425000153,96,672,0
4.837541880000117,3248,2736,0
4.840583422999771,4577,928,0
4.844570116999876,480,6801,0
4.847593735999908,5457,2048,0
4.851547534000019,5441,5265,0
4.854521510999803,256,928,0
4.858516939999845,112,560,0
4.861542542999814,2528,1120,0
4.865482271000019,912,3664,0
4.868504502000178,6209,2720,0
4.872494280999945,2192,944,0
4.875465697999971,528,848,0
4.878523028000018,0,1680,0
4.882503824000196,4337,3120,0
4.885504049999781,1024,3168,0
4.8894874640000126,3328,8338,0
4.8924994730000435,1792,1040,0
4.897588684999846,3328,3056,0
4.900565740999809,1328,1408,0
4.903806863999762,3072,2752,0
4.907769881000149,1696,2912,0
4.910792166000192,4769,1280,0
4.913805614000012,432,576,0
4.917558012999962,2816,2816,0
4.921776995000073,3344,1392,0
4.924891926999862,496,3184,0
4.928723765000086,6001,3056,0
4.931748721000076,5361,1264,0
4.934827299000062,0,656,0
4.938710366000123,192,480,0
4.941691777999949,3840,1840,0
4.945708564000142,816,2688,0
4.948819607000132,4433,2672,0
4.952637291999963,2288,1312,0
4.9557492750000165,768,1856,0
4.9597640000001775,512,1744,0
4.9627289179998115,3936,2336,0
4.966743519999909,1248,2864,0
4.969848607000131,2992,1200,0
4.973919702999865,1584,1472,0
4.976887627999986,528,928,0
4.980879094000102,928,1040,0
4.983967484000004,2384,2112,0
4.988051178000205,1248,2560,0
4.9910249330000624,3104,2352,0
4.994910250999965,1168,1376,0
4.997927908999827,128,976,0
5.001941249000083,3232,1680,0
5.0048900430001595,1328,2208,0
5.008902702999876,6513,2608,0
5.0118968950000635,4032,880,0
5.014802062999934,0,768,0
5.018781035999837,0,1056,0
5.021871779999856,4097,1248,0
5.025760757000171,256,2304,0
5.028865291999864,5665,3136,0
5.032734062000145,3984,672,0
5.036104217999764,1280,1504,0
5.038867702000061,0,2816,0
5.0427983069998845,2352,6737,0
5.045859132999794,544,2048,0
5.049878775999787,3024,8081,0
5.053028767999876,1552,848,0
5.056841703999908,128,912,0
5.059830204999798,704,1248,0
5.063950857999771,5409,2624,0
5.0669143879999865,2800,3152,0
5.070828682999945,3472,1792,0
5.073829822999869,1648,1792,0
5.077897284999835,224,992,0
5.080836169000122,2896,832,0
5.08482001099992,880,2736,0
5.087985087000106,5185,3072,0
5.091853441999774,5233,176,0
5.094778042000144,2416,1872,0
5.098044260999814,432,768,0
5.101724800999818,8658,1728,0
5.1050168779997875,96,3248,0
5.108762076999938,5937,2656,0
5.111754679000114,4673,1520,0
5.115852073000042,96,3568,0
5.118784591999884,0,544,0
5.122697716999937,5665,1488,0
5.125958646000072,1824,2752,0
5.129750096999942,4032,1824,0
5.133034313999815,2720,2048,0
5.136665958999856,16,1360,0
5.139883764999922,3408,4673,0
5.143741426999895,2208,2304,0
5.146881955000026,1456,3104,0
5.1506507089998195,3520,2416,0
5.153864175999843,2128,1104,0
5.156849991999934,0,896,0
5.160765453999829,80,6673,0
5.163858870999775,1440,3600,0
5.16775434300007,1552,3616,0
5.1708713729999545,4369,2352,0
5.174746421999771,528,992,672
5.177684322999994,0,1248,0
5.181589169999825,4064,1712,0
5.1845872270000655,0,3488,0
5.187615541000014,3168,944,0
5.191720315000111,3776,5569,0
5.1947421919999215,768,1232,0
5.198661812999944,1792,1120,0
5.201808594999875,2304,6385,0
5.205821112000194,3088,3808,0
5.209546375000173,5585,1600,0
5.21272983200015,5041,3072,0
5.215572219000023,256,256,0
5.219690494000133,1200,6129,0
5.22379194999985,3344,1632,0
5.2267319779998616,3888,3872,0
5.229621501000111,3616,992,0
5.233831571999872,3504,2032,0
5.236767558999873,384,960,0
5.24084657100002,608,6369,0
5.243835077999847,3072,2144,0
5.247724758999993,2208,7153,0
5.251007960000152,7137,2304,0
5.254867756999829,3312,2048,656
5.2579363129998455,48,976,0
5.262020700999983,6913,4833,0
5.265013881999948,0,3360,0
5.268765405000067,5761,5121,0
5.271939094000118,2304,768,0
5.275025699999787,0,0,0
5.278785316999802,352,656,0
5.2818688429997565,1872,2000,0
5.285707335000097,544,1792,0
5.288849193999795,3200,1648,0
5.292767492000166,2624,2144,0
5.295795234999787,0,1152,0
5.2989708790000805,560,1040,0
5.302804815999934,2864,6145,0
5.306086029000198,192,2288,0
5.30975195100018,1792,5169,0
5.312973172000056,3504,5457,0
5.316825907999828,4353,2448,0
5.3208558999999696,2320,1376,0
5.323963090999769,5745,3328,0
5.326933924000059,0,2304,0
5.330940235000071,4385,288,0
5.33401115200013,0,3312,624
5.336857239999972,496,0,0
5.340953009999794,5169,3120,0
5.344721384999957,2928,2368,0
5.347865256000205,13587,4257,0
5.351905472999988,12819,784,0
5.355000324999764,3040,864,0
5.357930856000166,800,768,0
5.361945849999756,9394,2192,0
5.3657841989997905,1136,1088,0
5.368767802000093,4897,2352,0
5.372787753000011,12643,1744,0
5.375981611000043,0,1408,0
5.378934830000162,848,1296,0
5.382861730000059,6097,4016,0
5.386748847000035,8578,2048,0
5.3899806979998175,7761,2320,0
5.393923480000012,19988,912,0
5.39684090899982,112,2032,0
5.400903045000177,18708,1536,0
5.403879463000067,35544,2400,0
5.407814611000049,30727,1088,0
5.411748428999999,22133,2768,0
5.414997390999815,3760,1936,0
5.418784331000097,13827,624,0
5.422020085999975,45467,1648,0
5.426020292999965,4753,4497,2096
5.429880318999949,19828,1232,0
5.432921137999983,3840,1568,0
5.4367900629999895,39529,1744,0
5.439784088000124,0,2192,0
5.443774371000018,24565,2816,2976
5.446877593999943,0,1792,1760
5.450828571999864,3472,4129,768
5.454710974000136,6497,3056,0
5.458635379000043,2816,1312,2496
5.461815393000052,21461,5041,0
5.465732282999852,6657,3600,0
5.468831040000168,2640,1872,0
5.472677060000024,1280,432,0
5.475721622000037,464,2096,0
5.479637808999996,1888,3424,0
5.48265335699989,5009,2832,0
5.4867133610000565,4353,3456,0
5.489862054999776,6401,2784,0
5.493832968999868,1680,0,0
5.496786761999829,1904,4401,0
5.500840260000132,13747,2064,0
5.50385061399993,9474,2864,0
5.507773505999921,24437,9746,0
5.510900136000146,9586,240,496
5.514864461999878,8049,2336,0
5.518609019999985,1616,672,0
5.521771990000161,39849,5073,528
5.525796336999974,18932,6737,0
5.529816013000072,18900,3184,1184
5.533829860999958,1520,12403,5889
5.536758203999852,7169,2576,0
5.540933668999969,6081,1312,0
5.543850223999925,17268,2832,0
5.547793309000099,12018,11010,0
5.551922467000168,6257,1296,768
5.555827299000157,18148,1120,288
5.5589015460000155,31031,4193,0
5.562773072999789,5649,896,0
5.565989921999972,2544,1280,0
5.569784694000191,13395,816,0
5.572868555999776,13155,2288,0
5.576999668000099,15011,1040,0
5.580112190999898,7009,3616,0
5.584046770999976,5969,1568,0
5.587778142999923,1424,1248,1824
5.591883102999873,5953,1264,272
5.595060613999976,10498,2256,0
5.5989856930000315,4353,1152,0
5.6027559610001845,11954,4385,12995
5.605976625000039,5041,1056,0
5.609971964000124,19732,1360,0
5.612959475000025,6401,1792,0
5.616904224999871,10322,288,0
5.6198905759997615,1184,1504,0
5.624007198000072,9938,10114,0
5.6279718929999945,736,9218,2832
5.6309013770001,11602,3280,0
5.6348135600001115,9714,6865,0
5.637918470999921,8306,864,0
5.641958982999768,0,5889,0
5.645053147999988,2512,9378,0
5.64900827800011,12643,1392,0
5.6520726939997985,2160,7025,0
5.656023760000153,2208,4657,0
5.659099654999864,4064,4209,0
5.66283919999978,7601,3904,0
5.6669223290000446,688,1360,4609
5.669912681999904,2480,1520,1104
5.674045512999783,22005,2928,0
5.677907125999809,2816,848,0
5.681113002000075,13539,2384,5665
5.685079783999754,0,5745,0
5.688756658999864,11522,1024,1760
5.692055019999771,26614,1360,880
5.695916392000072,13411,10498,0
5.700016329999926,15411,6913,22869
5.703857452000193,33800,1584,7425
5.707073278999815,4865,3328,0
5.710999193000134,6449,3024,0
5.714013385999806,0,7169,0
5.717937327000072,976,2192,0
5.721020802000112,3104,544,0
5.724942035999902,1392,2816,256
5.728768212999967,1616,8530,560
5.731905134000044,5649,3472,0
5.735721038000065,1280,5921,0
5.738837007999791,10018,6097,0
5.742787753999892,2096,2336,0
5.745883948000028,0,5105,3248
5.749778317000164,7025,3840,0
5.753698878999785,12803,4497,0
5.7568216929998925,8610,3184,0
5.760800013999869,3280,1248,1024
5.764700028999869,336,5489,3328
5.767903380999996,7505,5121,0
5.771688920000088,12291,1968,1040
5.77566881499979,0,5329,5633
5.778714064999804,3296,9906,9474
5.782624227999804,0,2832,0
5.78561059499998,688,4497,0
5.789559077999911,25206,19300,0
5.7926020629997765,1648,6001,0
5.796797690999938,6065,18452,784
5.799908749999759,0,4097,0
5.803849418000027,7249,1600,0
5.807820028000151,736,5025,3744
5.8108387990000665,2640,1088,0
5.813854735999939,0,0,0
5.817690048999793,2928,3088,0
5.82088131799992,5921,6577,0
5.824860656000055,2608,3088,2032
5.828807560999849,3856,10242,0
5.8317409619999125,11074,4769,864
5.835782972999823,192,12274,0
5.839853294000022,2544,208,6929
5.842816402000153,6209,8097,7937
5.847050119999949,4545,10194,0
5.850816891999784,11602,3248,0
5.854931277000105,2928,25046,8642
5.857987160999983,0,3984,0
5.861892363000152,0,6401,10210
5.864995930000077,768,6401,0
5.867910456000118,9954,992,0
5.8718514560000585,2864,23637,0
5.8750523839999005,0,2064,0
5.878819108999778,9490,528,0
5.882035091000034,7953,4337,0
5.885881744000017,6145,5633,1104
5.8899801679999655,22533,3872,2784
5.893781624999974,13491,2128,2576
5.897103311000137,0,5377,6305
5.900913469999978,1872,6769,2240
5.904941219000193,22965,18980,11122
5.909067399999913,8802,3312,23221
5.912930315999802,14947,4561,5457
5.916796627000167,5409,4048,0
5.919850006000161,2816,5217,0
5.924012694999874,7985,3392,944
5.926862880000044,0,3616,3312
5.930993624000166,0,1776,1904
5.933951027000148,2816,3216,0
5.937768538,0,5313,0
5.941081799000131,96,3584,2240
5.945034772999861,7825,9986,8450
5.9488236789998155,21509,2160,0
5.952726614999847,19028,6593,2112
5.955998149000152,0,1424,7073
5.960025592999955,18068,12531,10674
5.963984515999982,10402,2592,0
5.9678235669998685,10738,7281,6593
5.970877839999957,10786,5281,0
5.975050042000021,2800,528,10082
5.978860516000168,16243,1248,0
5.982105714999761,864,5153,1776
5.986041419999765,17188,8065,0
5.989905196000109,10498,1392,0
5.9929529030000595,4273,9234,0
5.996937165999952,24357,176,0
5.999952060999931,10290,848,0
6.0040923930000645,15667,12627,3840
6.00802203100011,9058,16131,0
6.0110042109999995,20340,5025,0
6.0150324289998025,2896,5889,0
6.018830052999874,7841,6033,1312
6.021891271000186,21317,432,0
6.026160665000134,24021,3472,8930
6.029915263000021,19828,768,4353
6.033831327999906,9602,1280,0
6.03687040900013,14403,4097,0
6.0408193610001035,5377,8978,9474
6.043902552999953,12082,0,0
6.047871370999928,7249,8962,864
6.051787581000099,15155,3168,0
6.054822603000048,368,992,0
6.058675040999788,13459,2736,0
6.061665459999858,288,7521,3680
6.065633098000035,7409,11314,0
6.069576517999849,6577,11778,0
6.072589938999954,6769,464,0
6.076845735000006,3568,528,224
6.079916766999759,5137,2352,0
6.083793938999861,6049,3664,0
6.0878613780000705,1952,1136,2736
6.090883005999785,3072,11826,0
6.094799272999808,2864,1600,0
6.097800534999806,4401,2272,0
6.101576296000076,9650,10258,0
6.104904669999996,9298,8081,0
6.108852082999874,736,3616,0
6.111867146999884,16740,848,0
6.115855682000074,0,5777,0
6.118658666000101,5297,1024,0
6.122727256999951,736,3104,0
6.125877894000041,7697,5569,5089
6.129848414000207,8097,2960,0
6.133775397000136,256,976,11170
6.136845819999962,1392,2160,1872
6.140827122999781,17060,1824,9522
6.145008305999909,0,5121,592
6.1479803739998715,0,3664,5361
6.151989004999905,14659,15923,3568
6.156052209999871,7025,9474,0
6.1599600189997545,14387,1088,432
6.162911156000064,0,3184,0
6.166842451999855,1328,768,3312
6.169855733000077,544,6385,0
6.173972882999806,4865,1376,0
6.176933099000053,21509,1648,0
6.180957730000046,4513,2064,0
6.1847667130000445,20517,1792,800
6.188063455999782,39577,2048,0
6.191964809000183,3536,5537,0
6.195040905000042,256,1392,0
6.19884128700005,1824,5985,0
6.201902356000119,2000,1616,0
6.2060314420000395,3840,1792,0
6.209076108999852,14227,1760,0
6.212955533999775,7761,3184,1040
6.216793050999968,768,7425,0
6.219900870999936,0,1184,0
6.223952107000059,14947,3824,0
6.227078085999892,9650,6321,0
6.231005464000191,12595,7857,0
6.23479620299986,3120,8690,1440
6.2379430020000655,7857,3984,0
6.24193857399996,368,12291,0
6.245079370999974,0,4177,0
6.248806339000112,12130,17060,0
6.252100106999933,1248,1648,1184
6.255966566000097,5889,17156,1584
6.259919689000071,0,1264,2080
6.263904193000144,5313,1584,752
6.267078430999845,6833,20501,0
6.270970833999854,2080,6337,0
6.274088030999792,8450,9714,208
6.277942539999913,0,4929,0
6.280935279999994,13587,1376,0
6.284997744000066,10754,7793,832
6.288938403999964,12467,5457,0
6.292021893999845,48,1552,0
6.295076343999881,0,3568,0
6.298930685999949,1024,2224,0
6.302758770999844,14595,4064,4369
6.305995843999881,208,864,0
6.309835427000053,8274,1056,0
6.312865855999917,7889,512,0
6.316023736999796,0,352,0
6.319775857999957,0,560,688
6.32285790800006,1360,2928,0
6.3268450360001225,3664,10290,432
6.330760931999976,8049,1744,48
6.333862984000007,3632,256,3696
6.337783622000188,5137,8049,0
6.340901977000158,3840,272,0
6.3447951409998495,0,2480,1264
6.347895104000145,5921,2896,0
6.351811444999839,3664,8049,0
6.355762578999929,4417,4769,496
6.358716232000006,3872,2384,0
6.362600980000025,7345,8306,0
6.365697819000161,2720,4097,0
6.368665724000039,0,0,0
6.3727770780001265,624,2784,352
6.3757945560000735,3072,176,0
6.379681175999849,2000,2736,0
6.382818262000001,3616,1072,0
6.3869306070000675,0,5233,1840
6.389959310999984,2048,4753,0
6.393797940999775,8962,10210,1952
6.397754731000077,0,3936,0
6.400740231999862,4289,4064,2016
6.404877205000048,11522,1952,0
6.408880879000208,7425,1712,928
6.411894179999763,0,6305,0
6.414938006999819,304,5185,0
6.418784329000118,3184,1776,0
6.422695388000193,5345,2384,0
6.425980146999791,0,2160,0
6.428936874000101,5601,3552,0
6.432810220000192,7953,6961,0
6.436808700999791,1072,14003,0
6.439906710999821,1856,1904,0
6.4440062610001405,2080,1648,224
6.447076800000104,112,9218,0
6.4508541010000044,5681,2192,0
6.453873856999962,992,22773,0
6.45711713899982,816,0,0
6.461070033999931,5345,8113,1648
6.464958640000077,0,10978,0
6.468016791000082,7921,1120,0
6.472013870999945,7425,1328,2864
6.475927959999808,11218,4449,624
6.479711790999772,7633,1888,1088
6.4830613929998435,6145,6913,2064
6.486990107000111,8914,9762,0
6.490087365999898,704,5889,0
6.494089486000121,2000,3312,4657
6.497799657000087,2928,848,0
6.501061375000063,4097,2256,0
6.505000379000194,1248,256,6753
6.5080848409998,3424,5137,0
6.512081432999821,19460,6321,9042
6.5159450810001545,5521,4817,256
6.519764530999964,6993,4305,256
6.522920919000171,19828,1312,0
6.526999992000128,5361,8722,0
6.530064114000197,17668,480,0
6.534028405999834,3648,7777,0
6.5379787699998815,2080,1280,4721
6.54108688999986,64,6897,1760
6.544893954000145,816,5537,3168
6.54897334799989,4016,5489,3328
6.551891378000164,0,528,0
6.555894298000112,288,624,3712
6.559090995000133,1264,768,1392
6.562829181999859,4577,864,0
6.566000069999973,0,4064,4577
6.570022128999881,6705,288,784
6.5729607170001145,5489,432,0
6.576901257999907,3024,3488,912
6.580846174999806,2816,2192,0
6.584002489999875,0,3328,0
6.586985499000093,14867,880,0
6.591053408999869,3824,2736,0
6.593980955999996,352,3840,0
6.598072301999764,512,7969,5745
6.601910823999788,12339,13411,0
6.605089187999965,6465,7681,0
6.609015871999873,0,9330,5889
6.612861280999823,24918,8290,6081
6.616016661999765,33624,496,0
6.61986452400015,5761,5473,0
6.623777477000203,5905,10834,2160
6.626911042999836,1168,800,576
6.630820442000186,7937,7697,0
6.63481955799989,2208,2816,13331
6.637910143999761,3072,6705,0
6.641775025999777,0,3984,0
6.644898487999853,7889,3616,1360
6.648834822000026,0,6209,1760
6.652736925999761,10738,1104,0
6.655887694999819,5681,1248,2544
6.659695102000114,0,6401,0
6.66263791099982,0,1600,0
6.665728699999818,5777,1024,0
6.66986946399993,6881,2928,0
6.673877545999858,10498,3072,0
6.676801073000206,8818,8754,0
6.680844860999969,5297,12274,0
6.683915120000165,3872,784,768
6.687819181000123,3840,7729,0
6.6908469609998065,2816,1808,0
6.694784425999842,12050,1680,0
6.698803144000067,4769,1296,0
6.7016716210000595,2816,2544,0
6.705789954000011,0,7009,80
6.708773613000176,240,10722,0
6.712719620999906,1568,400,1696
6.715865855000175,2512,35880,0
6.719857549000153,0,6913,0
6.722828647999904,7889,7441,8754
6.727027099999759,17924,9986,2512
6.731049032000101,3152,12883,0
6.734056401000089,0,1024,0
6.738011852,2256,3760,0
6.7411277480000535,208,2544,864
6.7450843820001865,9538,3376,1744
6.749029618999884,5825,1904,0
6.751992344999962,4945,3632,976
6.7559442359997774,3728,3168,0
6.759780928000055,896,6993,5217
6.762900112999887,5985,1632,0
6.767066592999981,4016,2464,6097
6.770017004999772,864,2032,0
6.773936738999964,4929,2736,0
6.777097072999823,336,0,2464
6.781027166000058,14515,4016,0
6.783984491999945,0,1264,0
6.78802726899994,0,11826,3600
6.792008424999949,4064,880,1072
6.795101879999947,2864,3216,0
6.799014454999906,912,3600,0
6.801909223000166,0,1168,0
6.805096389000028,272,7713,0
6.809043065999958,352,11746,560
6.81286580699998,8450,624,3520
6.816031391999786,15075,240,0
6.820029156000146,0,30775,1824
6.823942171999988,4433,1584,0
6.827015866999773,16740,13603,240
6.8311268839997865,5809,15427,18260
6.83506978000014,6833,9650,1440
6.838860407000084,2816,384,0
6.841862418999881,0,3616,0
6.845096721000118,0,3328,1040
6.84893719899992,2304,5937,1008
6.852833404000194,832,4000,0
6.8569382579999,11010,6481,4129
6.859921238999959,0,11602,0
6.8629929939997965,0,1024,1808
6.8671128239998325,6401,6609,1120
6.8709470049998345,8850,0,0
6.874063503999878,256,5553,0
6.877143022999917,7153,2512,0
6.881041234999884,3552,4753,0
6.884154019000107,3152,928,0
6.888056738000159,1744,4497,0
6.891113094000048,9634,800,0
6.89508030900015,6193,6289,1360
6.8988879200001065,3536,6081,0
6.901950151000165,8530,400,0
6.905921291000141,0,3328,1184
6.90911012000015,4321,1504,0
6.912911620000159,0,976,4016
6.915997599000093,3600,19252,0
6.919859178000024,21333,4769,0
6.923752958000023,1136,4577,0
6.926868244000161,20148,1344,0
6.930840157000148,28038,1120,3328
6.933940970000094,0,12915,0
6.937859098999979,6417,3776,0
6.940932123000039,288,2032,0
6.944847251999818,5041,5281,0
6.947930934999931,5649,672,0
6.951694394999777,6753,4721,0
6.954783204999785,0,2816,0
6.958675868999762,1552,1072,0
6.961676515999898,0,2784,0
6.965756774000056,5857,2336,0
6.968832147999819,4721,2112,0
6.9718280749998485,0,9442,0
6.975810378000006,0,8081,1120
6.979897303000143,96,1568,2288
6.9828171819999625,2736,5537,0
6.986842744000114,3120,4529,0
6.989946226000029,1744,5889,0
6.9939306360001865,5297,11026,0
6.996713078000084,0,976,0
6.99994199899993,768,3072,0
7.003944491999846,12803,18004,0
7.007790989000114,0,288,1712
7.010880013000133,10818,2816,0
7.014911530000063,5393,12274,2816
7.018802815000072,20885,352,0
7.021858176000023,0,11810,0
7.026058667000143,12531,18276,0
7.029869324000174,15955,2816,10162
7.032996844000081,6113,2048,2832
7.0369612310000775,4401,3072,1744
7.041013223999926,6625,288,0
7.0440864140000485,3088,8498,0
7.0479530650000015,5889,2240,4849
7.05184942599999,9810,1936,0
7.055079188000036,3536,1040,0
7.058144566999999,0,2144,0
7.061836590999974,0,9218,0
7.0650921629999175,544,6545,0
7.068829730999823,2304,4817,0
7.072010559999853,4257,5489,1824
7.075951443000122,0,3184,0
7.078930053000022,8450,256,0
7.082846145000076,2336,2240,2384
7.086005549999754,1616,8946,0
7.0900448170000345,7009,1760,0
7.092972183999791,256,8049,0
7.096966947000055,3584,4433,0
7.100953118999769,2656,1616,0
7.10409233900009,752,1536,544
7.108018700999764,8610,6753,0
7.111091104000025,3136,10962,0
7.114866097999766,0,2336,0
7.1181040410001515,16420,5297,0
7.121823468999992,16051,1024,0
7.12499298900002,8113,3840,0
7.128908142,13395,15459,0
7.1328514530000575,10482,1056,3840
7.1370090569998865,27110,2064,1328
7.139971345000049,0,2288,0
7.143848022999919,1024,5473,2080
7.147159938000186,5361,2336,0
7.151064348000091,1216,5393,0
7.154994709999755,176,912,4401
7.158077195999795,1744,2464,0
7.16201066199983,5905,1120,704
7.1650888479998684,0,1024,0
7.168882378000035,16740,6305,0
7.171927610999774,6417,3808,0
7.175990462999835,1024,1280,0
7.178985955999906,1024,464,0
7.182897735000097,1872,6673,0
7.187056651000148,3344,6929,3136
7.190160129000105,15763,3872,0
7.194044527000187,5201,0,2576
7.19717749099982,5681,2672,0
7.201168585999767,21509,1616,11890
7.204882950999945,5089,7473,0
7.208879335999882,18100,5537,528
7.2119351179999285,13491,1360,0
7.215876147000017,496,4064,0
7.218897197999922,15715,8530,0
7.2227976809999745,7809,416,3040
7.226848665000034,27574,2800,2992
7.230813141999988,14707,4673,2256
7.234771731999899,14371,9986,1792
7.238767813999857,30839,2576,3776
7.241844270999991,704,1488,0
7.245822265999777,7121,3872,6929
7.248784949999845,14483,0,0
7.252668049000022,13363,256,0
7.25576220999983,5681,2816,3552
7.259739935000198,13523,2928,6049
7.2639055049999115,0,6641,0
7.266913100999773,6145,3504,1248
7.270894321000014,5921,3360,272
7.2749288780000825,7633,12114,0
7.27793097499989,1456,320,0
7.2816963360000955,5281,7809,0
7.28487061199985,1824,3728,0
7.288890393000202,1696,1648,160
7.291951180000069,3632,976,0
7.2959495099999,1360,2976,0
7.2989196349999474,0,2576,0
7.3027787350001745,11170,2832,0
7.306014727999809,3856,11154,0
7.309899276000124,9474,1360,0
7.3138672029999725,6401,8610,0
7.31705235399977,4129,1456,3920
7.321071366000069,1888,21621,0
7.32489507199989,19204,1504,0
7.32800318999989,1280,4449,288
7.332032439000159,18868,2720,3760
7.335923096999977,496,6961,0
7.338951241999894,14595,0,0
7.342026698000154,32,8706,0
7.34613415900003,3536,10994,448
7.350030736000008,4257,1504,0
7.352891656999873,16500,3360,0
7.356855080000059,4961,2496,0
7.3610210550000374,16788,8626,4353
7.364141359999849,23653,5793,0
7.368100192999918,6833,4000,3312
7.372041122000155,6257,3584,2816
7.375859078999838,2928,3536,0
7.379195399999844,2672,1792,6049
7.382800306999798,2544,3136,0
7.386172718000125,0,1264,5729
7.389977624000039,5745,2752,3760
7.393896212000072,3248,3584,0
7.396982506999848,0,9522,7953
7.401081446999797,13427,22741,0
7.4041733270000805,0,1296,1024
7.408140741999887,10498,8914,8706
7.412081193000176,8450,12739,0
7.416081675999976,12643,2576,9762
7.41890185200009,0,624,0
7.422857864999969,3024,11698,1280
7.427029809000032,4080,9474,6913
7.4301070999999865,34264,1248,0
7.434033571999862,768,10098,0
7.43715592999979,0,5649,9474
7.441164497000045,8962,13139,18964
7.445006788999763,8946,11794,2896
7.4490141080000285,1104,8418,0
7.452027240000007,2976,11234,0
7.456024193999838,1392,8129,0
7.459976127000118,5825,7313,0
7.4628974590000325,1040,1440,768
7.467046294999818,2256,8450,0
7.470080705999862,736,2464,0
7.473850203999973,928,592,0
7.477095443000053,0,2704,512
7.4808523550000245,7425,1024,0
7.4840193559998625,1136,944,4273
7.488111156999821,13939,3408,6545
7.491954494999845,4385,1872,3536
7.496107153000139,10930,14083,11026
7.500041466999846,2144,22773,9762
7.504009889999907,13571,1184,1280
7.508004968000023,12018,3312,8145
7.5109806629998275,3488,1712,0
7.514875733999816,5089,288,8754
7.518760272999771,0,2304,10450
7.52189327699989,736,15923,0
7.52587649499992,176,4032,3248
7.5297807060001105,1792,9074,4321
7.532841313000063,112,1328,0
7.536779043000024,7329,2912,0
7.53985581500001,0,1648,0
7.542981839999811,3312,2144,0
7.546804483999949,9298,5985,4337
7.5508057950000875,13939,1696,6401
7.554699312000139,11650,6353,0
7.557722741999896,992,1392,2832
7.561835533999783,12194,4080,28006
7.565880992000075,0,10242,800
7.569933106999997,7217,2816,2672
7.572783432000051,5489,5841,0
7.576921964000121,3232,3216,1200
7.580863280999893,5041,10850,0
7.583944886000154,272,2992,0
7.587917984999876,272,2480,4497
7.590982993000125,8946,2112,0
7.594924608999918,1792,416,0
7.597907877000125,0,5249,0
7.60190641500003,8722,1232,2240
7.605961019000006,1328,11058,240
7.609855380999761,15107,4593,2096
7.612745009999799,6305,12146,0
7.616977241999848,17908,480,0
7.620034630000191,640,7665,5377
7.624090862999765,19924,16660,0
7.6280664400001115,864,1056,10834
7.631065552000109,9506,16644,0
7.634936745999767,14771,2192,13139
7.639125602000149,3376,5905,9938
7.642873959000099,7249,4865,0
7.6469580250000035,3008,5633,1824
7.649967699000172,3904,2816,0
7.6540681890001,12899,1616,0
7.656903547000184,6513,784,0
7.6608193080001,4961,528,720
7.664756506999765,4865,2720,2288
7.667926137999984,7025,5841,480
7.671849634999944,13779,6545,0
7.674939229999836,0,2736,4193
7.678932464999889,2528,16852,5553
7.682738410000184,7377,192,0
7.685829259999991,0,2784,5105
7.689720049999778,2304,4353,2320
7.6936726899998575,1776,6289,3392
7.696647807999852,0,6689,0
7.70061038699987,4321,1936,0
7.7036640510000325,240,2288,0
7.707649910999862,6321,11266,9042
7.711621505000039,25910,1024,4641
7.714671833000011,0,2704,5265
7.718660064999767,12595,3040,0
7.722641012000167,15363,17892,0
7.726617088999774,23317,4193,8706
7.730633797999872,7937,10594,10594
7.734661483999844,17076,10034,16644
7.738659165000172,9906,6929,19764
7.7416871810000885,5553,10034,0
7.745646304999809,7009,4097,256
7.748712723000153,1456,3440,0
7.752646071000072,2208,4113,0
7.755692209999779,0,0,0
7.758679460000167,80,2336,0
7.762630787000035,0,3792,336
7.765692601999945,11618,7713,0
7.769635165000182,6993,8674,0
7.772646811999948,0,1344,0
7.776715290000084,1344,3632,0
7.779700412999773,0,2608,0
7.782716034999794,0,4257,0
7.787005911000051,9314,7121,0
7.790070382000067,0,11474,0
7.79398978800009,1888,2720,0
7.796979270000065,3808,6737,0
7.800730009999825,1216,8049,0
7.803901964000033,4177,256,0
7.807924752999952,0,288,4801
7.810728529999778,1792,5585,0
7.814705268000125,448,1792,1456
7.817697172999942,7889,816,0
7.821727330000158,6401,6897,656
7.825746806000097,19716,6433,2576
7.829691840000123,2896,2064,0
7.832735372000116,3248,6353,208
7.836926399999811,528,512,0
7.839873233000162,3504,2256,1312
7.843887157000154,1120,7633,0
7.847901368999828,3152,2608,0
7.850722939000207,6145,5329,0
7.854934577999757,2784,528,3920
7.857988620000015,16932,1056,0
7.861996480000016,11394,3440,1760
7.866023142999893,9218,3824,5889
7.869764877999842,9570,496,0
7.872844617999817,8626,2736,0
7.877016277000166,0,3952,7121
7.87998565099997,1888,6769,0
7.883935564999774,0,17268,6417
7.88705907099984,0,656,0
7.890852356999858,10946,1296,4609
7.894171043999904,0,4705,240
7.897948028999963,9122,608,8690
7.901222894000057,0,3088,0
7.905054772999847,256,0,1168
7.9088730759999635,5265,1776,3568
7.9120157819997985,4785,8466,3664
7.91613078499995,10050,720,6033
7.919942270999854,1568,624,1584
7.922973891999845,2400,3632,0
7.9268645860001925,0,15187,0
7.930002532999879,0,1072,2784
7.9340289880001365,416,19204,0
7.937979787000131,5153,3888,6609
7.941787784000098,10514,4113,10258
7.944955143999778,208,2880,0
7.9490071440000065,11426,6977,0
7.951950150999892,1024,5121,0
7.955911245000152,2192,3840,0
7.959216765999827,8386,6865,0
7.962866569000198,3520,944,1792
7.966915453000183,9762,7201,5393
7.970109337999929,3680,1808,0
7.973871372999838,0,0,7121
7.97697357800007,15139,1264,1936
7.981105924000076,8450,3552,256
7.984891222999977,2544,3072,0
7.988184586999978,7761,768,5137
7.991978885000208,27910,5921,0
7.995901704000062,1584,1200,0
7.999198359999809,2576,4865,3408
8.00287484699993,28422,16596,0
8.007033079999928,0,2112,4097
8.010015551999913,800,15091,0
8.013915075000114,1840,7761,0
8.016966948000118,9490,864,0
8.020187234999867,0,11874,0
8.024011777999931,11378,2992,0
8.028094268000132,15619,848,5137
8.031154817999777,0,9314,624
8.034899291999864,5937,8754,0
8.038113342000088,0,768,0
8.041912131000117,176,12531,256
8.045034349000161,3280,1440,0
8.048929975000192,11010,3328,0
8.052000709999902,0,1440,0
8.0550553019998,3408,0,0
8.059040189999905,7649,1856,4465
8.062842188000104,2080,2848,0
8.066180163999888,992,14739,0
8.069998049999867,6641,768,5361
8.073891997999908,4305,1248,0
8.077074057000118,2560,3472,0
8.081091039000057,1648,2112,1712
8.084025268000005,5281,2064,0
8.087905624000086,3360,11042,0
8.091904993999833,2832,10930,11362
8.095922774999963,30183,15891,0
8.099817728999824,8978,6897,4129
8.102900795000096,19876,7585,7425
8.106911454000056,16131,3920,0
8.110838120000153,6881,12835,0
8.113938860999951,3760,992,0
8.117742982999971,9954,256,0
8.120839837999938,3744,6593,0
8.12475262299995,16532,14339,0
8.128676784000163,1696,5489,3248
8.13185516700014,6369,18100,0
8.135867151000184,18692,256,0
8.139864723999835,15187,2400,7569
8.142799075999847,5281,10498,0
8.146900049000124,8306,12579,672
8.150858332000098,5937,768,7137
8.154938794999907,5089,7937,11266
8.157968384000014,2816,6129,0
8.16184886300016,6849,3072,0
8.164960131000043,0,1584,256
8.168855868999799,2640,2208,736
8.1718655640002,9634,9938,0
8.175927688999764,1824,3376,1952
8.179804757000056,4273,1696,0
8.182852172999901,656,11266,0
8.187031113000103,4097,7121,0
8.18997486499984,1344,768,0
8.193806303000201,0,9042,0
8.197107394999875,2928,6193,0
8.200942702999782,7137,7937,0
8.204027852999843,0,4577,4097
8.208078810000188,27558,2832,0
8.211063460999867,25014,1120,0
8.214996392000103,8946,19460,3840
8.219216660999791,11682,20180,9570
8.222862291000183,848,2976,0
8.226086675999795,6497,672,5073
8.229956021999897,32,9394,0
8.233797902999868,13603,10834,0
8.237140542999896,3760,4769,0
8.240919144000145,18484,8450,0
8.244153918999928,4465,3808,0
8.24808455099992,18868,1264,992
8.251889581999876,28534,3472,0
8.255102521000026,0,1632,0
8.259091670000089,4353,12643,23397
8.262867986999936,23909,11570,3056
8.26699448799991,14883,2032,7025
8.270881220999854,15027,8498,4801
8.274059795000085,11314,4225,5729
8.27791280800011,3168,1808,0
8.281784047000201,7297,4353,0
8.285012294999888,5297,2464,1424
8.289177895000194,320,6113,5169
8.292798783999842,1424,2512,0
8.296079322999958,4897,8690,10578
8.299943012999847,1296,5265,0
8.303855104999911,10130,1984,1680
8.307833866999772,21733,6257,4657
8.310950519000016,17156,7537,0
8.31490210999982,23765,17684,0
8.318078956000136,0,1808,0
8.321997958999873,25814,6337,5649
8.325992577999841,2672,3040,0
8.328968598999836,23061,4977,0
8.332809414000167,15123,4145,0
8.336968629999774,9442,1376,0
8.339954987000056,10690,2912,0
8.344039476000034,3744,4833,2160
8.346842997999829,0,1552,0
8.3507539860002,720,4785,0
8.354853143000128,3872,1168,4769
8.357911688000058,4657,1648,0
8.361008168999888,7153,720,0
8.364957701000094,800,3184,1088
8.368914545999814,3872,7825,0
8.371927560000131,0,3104,0
8.375973565000095,3168,5649,0
8.379005591999885,0,4064,0
8.38190290800003,16500,1280,0
8.385840550000012,4657,3088,0
8.38978682600009,20308,6561,0
8.392797637000058,31607,1552,0
8.396766009000203,736,2304,0
8.399815293999836,0,720,0
8.402892857000097,9026,4849,0
8.406840324999848,25318,21397,0
8.410785368999768,9442,2736,0
8.413771022999754,4401,1280,0
8.417932266000207,4705,2608,0
8.42099297499999,912,720,0
8.424949853999806,11490,4177,0
8.427849392000098,21813,6913,0
8.431995927000116,20228,1376,688
8.435863950000112,5281,1616,0
8.43890215600004,11298,1392,0
8.442790527999932,20533,1024,0
8.445954394000182,5025,4897,0
8.449872297000184,4129,3440,0
8.4539166200002,5297,2336,0
8.456956257000002,976,3408,0
8.46097035799994,15619,2096,0
8.464068381999823,6417,3072,528
8.46787656000015,9554,3584,0
8.471225495999988,4529,2144,48
8.475043627000105,2656,3040,2144
8.478951370999766,1584,1584,0
8.482018856000195,22629,3392,0
8.486044195999966,4385,5009,1008
8.489940364000176,2320,2864,0
8.494086273999983,14755,1520,2512
8.497122068999943,0,1296,768
8.500923664999846,11058,1584,0
8.504208675999962,2608,1680,896
8.508133387999806,13363,8466,0
8.512071176000063,8274,2384,0
8.515169412999967,7089,2048,0
8.51801295999985,0,656,0
8.5218891479999,0,1488,0
8.525193048999881,3152,4048,224
8.528885653000088,0,3600,0
8.532032584999797,6401,1568,0
8.53596238099999,0,1840,2144
8.539113446000101,2304,1968,0
8.542868440999882,15923,1968,0
8.54606568700001,368,784,0
8.549988887999916,7441,2240,0
8.552935355000045,0,2512,0
8.55710610799997,2048,2784,1040
8.560153648999858,2192,3840,0
8.564106110000012,6401,3808,0
8.567153465000047,6161,848,0
8.571101036000073,20084,1552,0
8.574227271999916,8610,1936,0
8.577993819999847,9298,4433,0
8.581904867000048,7825,1376,0
8.584935790000145,18692,2448,0
8.589055841000118,2608,1792,0
8.59208341700014,4625,2128,0
8.596046965999903,12819,4401,4113
8.599950981999882,26454,2272,0
8.603023245999793,10578,2400,0
8.606993800000055,6001,9074,0
8.610902919000182,16195,3952,0
8.614171875000011,17492,2320,0
8.617966558999797,7425,2640,2720
8.622075894999853,9986,2048,464
8.625020158000098,15075,1552,0
8.628880040999775,8097,1200,0
8.632083841000167,5521,1024,0
8.636065809999764,6145,4593,2704
8.639990109999871,512,2656,0
8.642968808000205,31335,3296,0
8.647094214999925,7857,1616,0
8.649966571999812,0,2304,0
8.654073413999868,65535,2048,0
8.657197250000081,19876,2208,0
8.66111431499985,10754,368,0
8.664221199000167,20837,4609,0
8.667942907999986,12595,6913,0
8.671840735999922,9234,2592,0
8.674946936000197,400,2656,0
8.678818461999981,4801,1280,0
8.682010857000023,6177,3744,0
8.68596743199987,16644,5473,0
8.689027074000023,7169,2976,0
8.69294838299993,8962,2288,0
8.696028064000075,720,1424,0
8.699943273999907,4321,1280,0
8.702916603000176,2800,2544,0
8.706826000000092,11922,1952,0
8.709865796000031,0,5729,2544
8.713800896000066,112,2832,976
8.717978396000035,208,1456,0
8.721040393999829,9010,2576,0
8.724998974999835,208,3184,0
8.727752107000015,4593,3712,0
8.731997416000013,2576,1952,256
8.73500334900018,544,1184,544
8.738988809000148,2048,6145,0
8.74200872900019,7953,2464,0
8.745933536999928,21461,4401,0
8.749939879000067,7153,1888,0
8.752784241999962,9602,2304,896
8.757012784999915,28679,1216,1792
8.76080317700007,6177,1712,0
8.764049537000119,23525,2080,0
8.76779438299991,1904,2320,0
8.771113463999882,0,2320,0
8.775009346999923,3280,880,0
8.778004648000206,112,1968,0
8.781987398000183,10098,2256,0
8.785144499000126,416,3568,0
8.789080129000013,16371,2832,0
8.792154639999808,0,2144,0
8.795987948999937,1936,1200,0
8.79921861999992,2592,2704,0
8.802875076999953,2704,2704,0
8.806190829000116,1856,3104,0
8.80994412400014,2816,1792,0
8.814058123999985,4273,2736,1184
8.816966820999824,1344,2080,0
8.821016481999777,256,2064,0
8.824170646999846,2816,5153,0
8.827050868999777,0,2048,0
8.831150337000054,4097,1056,0
8.834103127000162,608,1664,0
8.838084352999886,0,1024,0
8.841053631999785,9586,1904,0
8.84508181199999,624,2816,0
8.84803150300013,336,2832,0
8.852046411000174,3792,1632,0
8.855174608000198,784,2048,1072
8.859045414999855,4769,768,0
8.862141643000086,0,2384,0
8.865939904999777,2928,2352,0
8.869060976000128,2336,2816,0
8.872907250000026,7425,2112,0
8.876121288999911,7889,1824,0
8.879172842000116,0,1520,0
8.88296137899988,19300,5121,0
8.88712827900008,17412,1984,0
8.890916089999791,65535,8786,3424
8.894224868000038,9250,2704,144
8.898178392999853,1504,2336,0
8.901208850999865,656,2560,0
8.905003701000169,2528,4097,0
8.908251039999868,1088,3392,0
8.911968870999772,2144,960,0
8.91503824199981,2080,1776,0
8.91895219900016,18372,80,0
8.922074019999854,3152,1024,0
8.92612060600004,3840,3152,0
8.929051955999967,6225,1552,0
8.932863261999955,0,5361,0
8.936177826999938,416,1120,0
8.939085432999946,0,1568,0
8.942951335000089,3056,4401,0
8.94621884199978,256,2304,0
8.950016331999905,128,7169,0
8.952964751999843,464,1264,0
8.957086461000017,560,624,0
8.960206034999828,2288,1840,0
8.964125133999914,5217,1872,0
8.967030510999848,2256,3680,0
8.970930426999985,1424,1024,0
8.973995204999937,1344,1792,0
8.977911201000097,496,1280,0
8.981017888999759,1280,1536,0
8.98487119299989,13155,3152,0
8.988068509000186,2816,2064,0
8.991951017999781,5921,4209,0
8.995033000000149,672,1024,0
8.99884536699983,368,6081,0
9.001846783000019,8594,1824,0
9.005811143999836,0,6113,0
9.008764920999965,1728,2512,0
9.012707365000097,1248,1264,0
9.01595237599986,2304,1536,0
9.01999942700013,6161,1280,0
9.02279061399986,7009,2224,0
9.026994645999821,7089,5793,0
9.029823978999957,2800,1712,0
9.033715200000188,12130,5697,0
9.037980264999987,1280,1168,0
9.04103755799997,6913,2640,0
9.044997980000062,3296,1920,0
9.048023835000095,5569,2752,0
9.051953863000108,9458,2544,0
9.054935089000082,14595,2016,0
9.058873948999917,0,7649,0
9.06192812900008,16676,2144,0
9.065952517999904,3376,3072,0
9.069107908000205,7281,3616,0
9.072980392999852,36120,1792,0
9.077044431000104,22437,1888,0
9.08008552399997,15123,2832,0
9.083989053000096,1008,2912,0
9.087197111000023,28711,3280,0
9.091096406999895,3664,9234,0
9.09423518199992,4032,1840,0
9.098148880999815,63599,4097,0
9.102082096999766,13555,880,0
9.105214092000097,10338,3936,0
9.108934337999926,0,2864,0
9.112035483,3840,4225,0
9.115991724000196,2288,1344,0
9.119214831000136,36648,3216,0
9.122946513999977,4497,3088,0
9.126102116999846,1360,3536,0
9.129976857000202,832,784,0
9.132961410000007,4241,2048,0
9.137131341999975,27894,1024,0
9.140252490999956,3232,1824,0
9.14418314400018,39177,2320,0
9.147230175000004,6497,2736,0
9.151022037000075,11794,3152,0
9.155116161000024,19572,1280,0
9.15808155500008,7089,1696,0
9.162139591000141,17252,3520,0
9.165993377000177,18404,3568,0
9.169198833999872,6929,4401,0
9.172967972000151,17092,1936,0
9.176092846999836,1216,1280,0
9.179924156000197,768,1136,0
9.183012785999836,18180,3344,0
9.187128443999882,40185,5057,0
9.19103331999986,12130,2048,0
9.194185122999897,4177,3168,0
9.19808236200015,28038,1792,0
9.201071029000104,47883,1952,0
9.205099318000066,17156,3072,0
9.209065220999946,25878,1808,0
9.212212525999803,11522,3360,0
9.215952015999846,7425,1328,0
9.219276417999936,27542,2304,0
9.22300684799984,13875,2736,0
9.226100212999881,0,1872,0
9.229989342999943,11234,1456,0
9.233002876999763,25878,1968,0
9.237209911999798,13651,2816,0
9.241144794999855,18548,2112,0
9.244238046000191,52924,4145,0
9.248001570999804,512,3888,0
9.251145933999851,528,2112,0
9.25518855700011,22869,1024,0
9.258261546000085,9778,1632,0
9.26201146099993,4273,7281,0
9.26503234699976,2208,2352,0
9.268968162999954,5649,4209,0
9.272051244000068,336,1760,0
9.275996121999924,3040,3040,0
9.279870042999846,1296,2064,0
9.28299276000007,2608,3536,0
9.286924088999967,8418,2448,0
9.290050520000023,11602,2784,0
9.293896791999941,13107,1376,0
9.296891125999991,5073,1808,0
9.30084146399986,928,8626,0
9.303840537999804,16692,3072,0
9.308022832000006,5841,3792,0
9.312031493000177,27366,1648,0
9.314984478000042,4609,2288,0
9.318806895999842,1568,1248,0
9.322075863999999,1168,2384,0
9.3260279000001,11666,3472,0
9.32900837699981,1504,2416,0
9.332781550000163,1008,8610,1312
9.33703651399992,2128,2000,0
9.340021397999863,18036,1120,0
9.344048552000004,0,3744,0
9.346965679999812,2336,4113,0
9.351024310999946,11314,2416,0
9.354074774999845,3312,2832,0
9.35802307799986,64,1888,0
9.361011095999856,9682,3088,0
9.365080220999971,19668,3328,0
9.36809379899978,10978,3056,0
9.372228370999892,5169,3984,0
9.375236509999922,0,1776,0
9.37916918100018,336,784,0
9.382087558999956,3504,1792,0
9.38503426599982,0,2128,0
9.389223433000097,5889,5713,0
9.392287500999828,7009,1744,0
9.396059254000193,3344,2048,0
9.399955197000054,2448,2192,0
9.403082458999961,2912,3632,0
9.407147433999853,2160,2640,0
9.410108679000132,1024,1344,0
9.414013391000026,4385,2096,0
9.417082652999852,400,1712,0
9.421117893999963,1632,2320,0
9.424228283000048,1120,1792,0
9.428118640999855,3648,3808,0
9.431262332000188,4080,1456,0
9.435000040999967,3520,2816,512
9.438012598000114,0,1392,0
9.442013136999776,1968,2272,0
9.445268293000026,1392,2416,0
9.448999271000048,4000,6305,0
9.452274812999804,4497,1616,0
9.456106651000027,4097,4048,0
9.459065243000168,720,1792,0
9.462950027999796,4353,5681,0
9.466738145999898,3104,3344,0
9.469810682000116,5041,2736,0
9.473778698999922,3696,1280,0
9.476774273000046,1344,1440,0
9.480722545999924,1744,1840,0
9.483731041999818,2592,1536,0
9.48772694499985,7521,4449,0
9.490759781000179,6417,2304,0
9.494717722000132,1744,1280,0
9.497753140999976,0,1360,0
9.501755245999902,1184,2048,0
9.50473208099993,64,3072,0
9.508744289999868,5377,3504,0
9.5117608999999,4609,2400,0
9.51477484499992,0,1552,0
9.518719079999755,0,2112,0
9.521775505999813,5873,1776,0
9.525743780000084,1136,2288,0
9.528777489999811,5377,2976,0
9.532714213999952,1952,1888,0
9.535766791999777,0,1248,0
9.539739891999943,5377,2864,0
9.542764292999891,3312,2304,0
9.54674617899991,1280,2256,0
9.549770563000038,5697,2208,0
9.553726048000044,736,1152,0
9.556731418999789,4609,1648,0
9.560709968000083,1968,1536,0
9.56375250300016,5441,3328,0
9.567747041000075,3616,3840,0
9.57074699299983,4577,3376,0
9.574758022999958,0,1344,0
9.577747713000008,608,1248,0
9.581747156999882,4865,2464,0
9.584783731999778,1792,2512,0
9.588719641999887,6145,800,0
9.591776468999797,1552,1872,0
9.594760562999909,0,1504,0
9.598763112000142,1120,3200,0
9.6017831879999,5233,1632,0
9.60573909599998,4785,4529,0
9.609736683999927,2048,1840,0
9.61280497000007,5265,2016,0
9.616762928999833,176,1328,0
9.61977357800015,6257,3024,0
9.62375321799982,4080,3472,0
9.626751139000135,4369,3952,0
9.63075045100004,2640,2192,0
9.633727092999834,2112,2032,0
9.636747707999803,0,1280,0
9.648484615000143,8033,4465,0
9.648782886999925,544,1808,0
9.649089989000004,2528,4977,0
9.651682919999985,8338,2800,0
9.654734523000116,2640,2544,0
9.657765653999832,0,1792,0
9.661744155000179,784,1296,0
9.664739582000038,0,2880,0
9.668731952000144,6033,3040,0
9.671731027000078,4753,2304,0
9.674833737999961,0,1392,0
9.678770147999785,0,6401,0
9.681820015000085,2608,2352,0
9.685813454999789,2304,4273,0
9.688812304999828,2848,1904,0
9.692770547999771,2288,976,0
9.695790332999877,432,1200,0
9.699716090000038,784,704,0
9.702783650000129,5121,3072,0
9.706751506999808,2928,2640,0
9.709775850999904,3424,1760,0
9.713728167999761,272,1440,0
9.716739035000046,160,3904,0
9.720732631999908,1216,2048,0
9.723783365000145,1616,3936,0
9.727759660000174,2560,3040,0
9.730781745000058,5409,2000,0
9.734774125000058,256,1280,0
9.737755262000064,912,1728,0
9.741741247999926,3792,2080,0
9.74474561199986,1392,3328,0
9.748691762999897,2928,2576,0
9.751752294000198,5025,2624,0
9.755733637000048,832,848,0
9.758740161999867,1040,880,0
9.76272175799977,6497,1376,0
9.76570829000002,144,3168,0
9.76972879799996,4064,3328,0
9.772743875999822,2384,2224,0
9.775758322000001,368,992,0
9.779713450000145,5745,4337,0
9.783689503000005,3856,2416,0
9.786748380000063,7729,2608,0
9.79071678399987,3344,1808,0
9.793728022999858,1584,1584,0
9.797727118999774,192,1280,0
9.800734508999994,1776,3296,0
9.803768233000028,0,2336,0
9.807753274999868,3888,6289,0
9.811699178999788,3920,2176,0
9.81475920899993,3184,2336,0
9.817747143999895,0,1152,0
9.821740277000117,768,1888,0
9.824724765000155,768,2880,0
9.828737860999809,3120,2336,0
9.831754389999787,3472,2304,0
9.834801650999907,0,720,0
9.838785047999863,2992,2560,0
9.842762387999755,3808,3024,0
9.845810836000055,2272,3296,192
9.849740693000058,3344,1424,0
9.852792230999967,3776,2928,0
9.856770391999817,0,1808,0
9.859811012000137,512,1856,0
9.863774438999826,1104,2768,0
9.866826812999989,3376,3040,0
9.870812575999935,2912,2240,0
9.873828925999987,2160,2320,0
9.876845599999797,0,2096,0
9.880800319000173,4513,2864,0
9.883758795000176,96,6401,0
9.887810788000024,5121,6961,0
9.890840961999857,7425,2368,0
9.894811711999864,5569,3632,0
9.89781039799982,272,1840,0
9.901820394999959,7425,4865,0
9.904832699000053,112,3088,0
9.908797952999976,5489,4353,0
9.912773523999931,3376,2816,0
9.91581648700003,3136,2160,0
9.918845250999766,752,2880,0
9.922755400999904,7729,3840,0
9.92672992000007,2320,3088,0
9.929789488000097,3280,2224,0
9.933800511999834,2736,2416,0
9.936812377000024,0,1584,0
9.939823934999822,0,1792,0
9.943803411999852,4385,2800,0
9.946833253000023,3760,3360,0
9.950817598999947,4097,2464,0
9.953811615000177,1312,1840,0
9.957802049999827,480,5857,0
9.960833981000178,2928,3136,0
9.964806926000165,1024,4353,0
9.967836847999934,5153,3072,0
9.971819654999763,5345,7617,0
9.974807588000203,256,320,0
9.978815467999993,176,1728,0
9.98181598300016,5089,896,0
9.985776220999924,1696,4785,0
9.988810761999957,3968,1952,0
9.992818263000117,2096,1536,0
9.995772374999888,0,640,0
9.99971494600004,1024,1520,0
10.002823848999924,4785,3200,0
10.006807484000092,1872,2832,0
10.009832764999828,2512,2928,0
10.013806879000185,1488,1600,0
10.01682940899991,960,3072,0
10.020793370999854,1568,800,0
10.023803013999895,1840,2576,0
10.0277831530002,3312,3392,0
10.030838950000089,4977,3328,0
10.033843710999918,0,864,0
10.03782028600017,768,6497,0
10.040811948999817,2576,2784,0
10.044810411000071,0,9074,0
10.047829953000019,4897,4113,0
10.051808183000048,5601,3312,0
10.054733177999879,432,928,0
10.058769399000084,256,1488,0
10.061824445000184,6193,2832,0
10.065778195999883,1120,2192,0
10.068801860999884,3184,3328,0
10.072782017000009,3328,2160,0
10.075760887999877,480,1584,0
10.079731485000138,320,3856,0
10.08283432899998,5105,2288,0
10.086715584000103,2800,2528,0
10.089770520000002,2336,2080,0
10.093736648999766,768,2048,0
10.096750260000135,944,2224,0
10.101207905000138,2080,1824,0
10.103927355999986,0,2832,0
10.107090117000098,3168,3152,0
10.110971562000032,4000,4689,0
10.113966956999775,1360,1296,0
10.117866459000197,2736,2496,0
10.121788983999977,6161,1792,0
10.124827578999884,304,3680,0
10.128791394000018,4721,2336,0
10.131783287999951,4977,2320,0
10.135818110999935,560,1120,0
10.138814096999795,1632,2832,0
10.142831577999914,3264,1552,0
10.145781244999853,1200,3344,0
10.149756671999967,2864,2464,0
10.152749911999763,3696,2880,0
10.156747917999837,608,1024,0
10.159732996999992,0,1888,0
10.162783566000144,784,2272,0
10.166767599000195,2928,7329,0
10.169782757000121,1584,1488,0
10.173801528999775,4865,3072,0
10.176780186000087,0,896,0
10.180757220000032,1072,1120,0
10.183847688999776,3328,3632,0
10.187815601999773,4545,5073,0
10.190846820999923,5889,3088,0
10.194799304999833,320,1568,1344
10.198771994999788,256,1904,0
10.201775173999977,6225,3008,0
10.205763150000166,1296,2672,0
10.208773001999816,2992,2400,0
10.212739039000098,2096,2544,0
10.21577999100009,0,1808,0
10.218807554999785,496,1120,0
10.222791708999921,1280,9138,0
10.225774397999885,1824,3536,0
10.229776363999918,4064,3360,0
10.23377341100013,1792,1888,0
10.236770628000158,1712,2048,0
10.240759979999893,2304,2256,0
10.243798156000139,2816,2896,0
10.24777855299999,3536,2304,0
10.250807940999948,7361,3136,0
10.254794038,1264,1616,0
10.257771635000154,96,3024,0
10.261786468000082,2576,1552,0
10.264825882999958,512,3072,0
10.26881587700018,4657,2816,0
10.271846732000085,3824,1776,0
10.274837253999976,0,656,0
10.278783560000193,0,224,0
10.281846565999786,4577,3648,0
10.284827571999813,0,2672,0
10.288836950000132,5249,2816,0
10.291838242999802,3184,2288,0
10.295821537999927,5601,4513,0
10.298846131000118,0,1088,0
10.302835985999991,5121,3056,0
10.305772160999823,944,2816,0
10.309828044999904,3072,1648,0
10.312849406000169,2832,2832,0
10.316705266000099,0,1536,0
10.31982591699989,2304,1584,0
10.323786603999906,2720,2304,0
10.326848789999985,2672,2112,0
10.330822613999771,3024,1648,0
10.333862253999996,1520,2000,0
10.337820792999992,0,1584,0
10.340777320000143,4833,2896,0
10.344829809000203,1024,3696,0
10.34783526000001,4897,3664,0
10.351755092000076,4705,2640,0
10.354785291000098,0,1024,0
10.35778310500018,224,1360,0
10.361845064000136,1744,5665,0
10.364851970000018,0,3376,0
10.368844998999975,3664,4241,0
10.371859504999975,3248,2064,0
10.375770697999997,0,336,0
10.378789898999912,4064,4417,0
10.382768927000143,4865,1696,0
10.385770562999824,1904,2304,0
10.389751758999864,2304,1360,0
10.392796009999984,3104,1584,0
10.39677586400012,544,1216,0
10.399768703000063,768,2048,0
10.403772762999779,2160,2064,0
10.406784507999873,3072,3312,0
10.410754788999839,3664,1968,0
10.413966003000041,1488,2704,0
10.416835695999907,0,1584,0
10.420788130999881,9010,3344,0
10.423784288000206,976,3072,0
10.42774831099996,4977,3024,0
10.431734758999937,4689,2208,0
10.434753131999969,1424,2320,0
10.437799930999972,0,2048,0
10.441768757999853,1136,3184,0
10.444796295999822,304,3232,0
10.448761384000136,5137,3344,0
10.451779603999967,3520,1840,0
10.455724042999918,64,6401,0
10.458883028999935,0,1280,0
10.462736997999855,2560,2656,0
10.465754527000172,592,2640,0
10.469834595000066,2304,2368,0
10.472823233999861,1424,1488,0
10.476826851000169,272,1312,0
10.479861743000129,2336,2320,0
10.483819894000135,1536,3792,0
10.486851467000179,3376,4305,0
10.490837359000125,3264,2736,0
10.493856864999998,2304,2960,0
10.497813408000184,272,880,0
10.500832155999888,2048,3136,0
10.50481389100014,912,3328,0
10.507850229999804,2048,1504,0
10.511843190000036,3440,3328,0
10.514857148999909,1024,1792,0
10.518829722000191,0,1024,0
10.521830818000126,4609,2224,0
10.52486711399979,544,3456,0
10.5288490920002,5009,4641,0
10.532843670000148,3664,1792,0
10.535844627000188,1744,2208,0
10.539830270000039,864,1520,0
10.542836075000196,4481,2656,0
10.546802974999991,768,2048,0
10.54983191500014,3280,4273,0
10.553844624999783,1792,2160,0
10.556811841000126,1776,2480,0
10.56083744999978,3408,1184,0
10.563834498999768,1952,4177,0
10.56781926199983,3808,3120,0
10.57084598900019,5809,2704,0
10.57484675500018,1664,2784,0
10.57786791799981,768,2096,0
10.581851363000169,3824,1872,0
10.584842602000208,400,3184,0
10.5888191250001,3552,4257,0
10.591868447999786,1696,2304,0
10.595834769999783,224,1280,0
10.59883536999996,0,2816,0
10.60280862799982,3072,2896,0
10.605866287000026,1312,2848,0
10.609845766000035,2160,1264,0
10.612809777000166,2768,1536,0
10.615793291000045,0,1792,0
10.619777839000108,5809,4353,0
10.623822750999807,1280,4113,0
10.626853892999861,3744,3664,0
10.630833558000177,1184,1216,0
10.633821505000014,1168,2704,0
10.6368199919998,0,976,0
10.64077830799988,2672,2048,0
10.643812364000041,0,3072,0
10.64783566999995,4321,2208,0
10.650822558000073,8770,3008,0
10.65476203299977,0,1168,0
10.657787028999792,3024,2128,0
10.661763818000054,3088,2768,0
10.664763038999808,1280,3264,0
10.668762566000169,5633,3328,0
10.671792822000043,5665,4545,0
10.67573449800011,544,1376,0
10.67878693900002,768,2368,0
10.682768290999775,3328,3072,0
10.685780899999827,0,3072,0
10.688805236000007,3504,1968,0
10.69276122500014,4193,3664,0
10.695835990999967,464,2128,0
10.699796192000122,96,7585,0
10.702871313999822,1536,2960,0
10.706847026000105,5297,4673,0
10.709828506000122,768,2224,0
10.713832120000006,2304,2000,496
10.716859293000198,752,1888,0
10.720799398000054,9346,4385,0
10.724768949999998,1904,1648,0
10.727825560999918,3312,2848,0
10.731805580000128,4353,2304,0
10.734830771999896,512,1904,0
10.73879566200003,432,2080,0
10.741799097999774,5377,2512,0
10.744846774000052,48,3328,0
10.748819318000187,4193,7569,0
10.751855490999787,1968,2032,0
10.75582692099988,4849,3312,0
10.758827393000047,0,1696,0
10.762817577000078,1968,3072,0
10.765859230999922,1456,1920,0
10.769797802000085,2560,7665,0
10.772857691999889,464,1888,0
10.776847818000078,688,1536,0
10.77986726600011,1312,1024,0
10.783803094000177,0,2080,0
10.786832109999978,2512,2864,0
10.79082260999985,3424,2304,0
10.793861602000106,1680,2448,0
10.796784041000137,0,512,0
10.800760061999881,1904,7073,0
10.803768154999943,784,2016,0
10.807824789999813,5697,5425,0
10.810865212999943,5553,2048,0
10.814819632999843,3872,2832,0
10.817837532999874,0,1184,0
10.821815098000116,1248,1984,0
10.824814119000166,1040,2816,0
10.82888450900009,6513,4449,0
10.832246359999772,3184,1744,0
10.835811723000006,0,4849,0
10.838826638999763,0,2352,0
10.84280696199994,5377,2512,0
10.845784835999893,2912,2976,0
10.84980421499995,4657,2080,0
10.852830111999992,3696,1952,0
10.856732619000013,144,2224,0
10.859836033000192,3376,3184,0
10.86381052500019,2976,3536,0
10.866830897,3552,3648,0
10.870815254999798,3072,1808,0
10.873827859999892,832,1760,0
10.87680090899994,0,752,0
10.880808171999888,720,7825,0
10.883803536999949,1792,3264,0
10.887749343999985,4961,9170,0
10.890791679999893,6385,2336,0
10.89487518399983,1312,6225,816
10.897850055000163,0,2304,0
10.901827900000171,1760,6513,0
10.904808083999797,0,3264,0
10.909099296000022,1584,2544,0
10.911840116999883,9986,2784,0
10.915819537000061,5713,816,0
10.918823021000208,2144,1680,0
10.922822193999764,1648,1744,0
10.925811058999898,2640,2256,0
10.929827509999996,5345,3168,0
10.932821080999929,3504,1728,0
10.936826830999962,6753,4657,0
10.939818579000075,944,1328,0
10.943799819000105,0,5681,0
10.94684472400013,9506,2688,0
10.950828313999864,5425,1200,0
10.953851827000108,6929,1440,0
10.95783093099999,1792,1504,0
10.960819489000187,1072,1280,0
10.964829281999755,1088,7441,0
10.967849210000168,832,2304,0
10.971830726999997,10786,7377,0
10.975792576000003,10098,1232,256
10.97885334800003,13571,1616,0
10.982832774000144,1024,5377,0
10.9858937529998,9042,2624,0
10.989836760999879,12258,2864,0
10.993821991000004,24325,1280,0
10.996841763999782,33544,1296,0
11.000829709999834,2816,3168,0
11.003820343999905,1632,2592,0
11.007836011000109,24678,5745,0
11.011820668999917,23253,2160,0
11.014823735999926,5457,2160,0
11.018797878999976,4945,2128,0
11.021866848000172,4353,2576,0
11.025822096999946,15155,1280,0
11.028847164000126,4529,2912,0
11.032836811999914,12563,5409,0
11.036804748000122,4241,1360,0
11.039840514999923,3088,1504,0
11.043819128999985,3792,2416,0
11.046818678999898,1904,2016,0
11.050805028000013,9106,2576,0
11.054790149999917,2096,2048,1472
11.057840656999815,12307,3328,0
11.061796596000022,3120,2544,0
11.064860621000207,1792,2912,0
11.068826585999886,3920,2368,0
11.071847007000088,752,3296,0
11.07584807000012,112,2576,0
11.078865616999792,1520,2048,0
11.081851055999778,0,640,0
11.085851274000106,2720,6945,0
11.088858485999936,1280,1584,0
11.092808952999803,4913,4513,0
11.096812779000174,1616,1264,0
11.099846125000113,1680,3248,0
11.103814579999835,1104,2320,0
11.106842942000185,9090,2304,0
11.11082934199976,4369,1168,0
11.113841779999802,496,368,0
11.117827596000097,4865,1904,0
11.120846764999897,6161,2048,0
11.124787820000165,944,1792,0
11.127895979000186,1424,1840,0
11.131816975999755,688,1920,0
11.134846289000052,4353,1424,0
11.137822958000015,0,1536,0
11.141764642999988,0,6689,0
11.144819801999802,1968,1696,2608
11.14880850999998,14947,8770,0
11.152780205999989,1024,6545,0
11.155779822000113,6673,1264,224
11.159777976999976,8642,1168,944
11.163766316999954,30631,1088,0
11.166852412000026,20052,1984,560
11.170802866000031,1792,5041,0
11.174760051999783,14387,1360,1648
11.177804745999765,1824,1168,0
11.181804065000051,3152,7761,0
11.184824333000051,1952,1280,0
11.188837499999863,23717,3680,0
11.192801963999955,26294,1792,0
11.195832875000178,7169,2304,0
11.199810957999944,2416,2048,0
11.202826117999848,14995,2304,0
11.206825087000198,22325,7425,0
11.21082277100004,9650,1824,0
11.2138193589999,5649,2304,0
11.217807314999845,1280,2832,0
11.220850582999901,1280,4897,0
11.224833881999984,2608,2288,0
11.227862131000165,14339,1232,0
11.231815772000118,6241,1456,0
11.234845669000151,3744,1040,0
11.238810932999968,0,6609,0
11.241861222999887,1088,5889,0
11.245854409000003,4113,10594,1712
11.249845043999812,2272,1584,1296
11.253847294000025,656,6657,5489
11.256855068999812,2384,1072,0
11.260804417000145,10754,1008,0
11.264784273999794,1200,1760,2128
11.267839300000105,8177,4000,2672
11.271825610000178,16932,10322,0
11.275814839999839,21285,11010,0
11.2788186759999,3632,2304,0
11.282804311999826,928,2816,0
11.285812474000068,976,928,4113
11.289830429000176,15475,7649,0
11.29381169699991,12515,5489,0
11.296832425000048,8706,768,1280
11.300832638999964,7889,1552,2544
11.304763869999988,800,3088,0
11.308087022000109,3856,2304,0
11.311795361999884,1888,1056,0
11.31482138499996,18612,1344,0
11.318809037999927,7633,2304,0
11.322193394999886,6817,960,0
11.32581107299984,16,1232,0
11.32882504700001,4977,3280,0
11.332780511999772,1712,1968,0
11.336108403999788,11426,2048,0
11.339841953999894,4241,3728,0
11.342864627999916,25718,1712,0
11.346848701999988,6033,18084,0
11.350896119000026,6161,1824,0
11.354845981999915,15331,13123,6497
11.357833034000123,16644,2480,0
11.360888322999926,0,5905,0
11.365191637999942,2816,3872,2912
11.36882187099991,21237,6545,0
11.372804594000172,1904,11442,5457
11.37583761299993,4897,1104,0
11.380091178999919,0,928,0
11.382869429000039,160,3840,0
11.385844453000118,1104,672,0
11.38981985800001,19716,4289,304
11.394094325999959,19348,1968,0
11.396956832999876,0,928,0
11.400786675999825,1808,11666,0
11.403817177999827,1904,2016,4497
11.407817868000166,19460,4064,10450
11.411803881000196,16083,5841,0
11.41521968699999,0,3584,0
11.418833954000092,15635,22997,3632
11.4228123339999,12915,13587,0
11.425863382999978,512,7121,0
11.42981627800009,5889,5185,16
11.434142257000076,16868,4097,0
11.437235954999778,4625,1168,0
11.440819980000015,4625,6369,0
11.443797130999883,9042,1648,0
11.447806188999948,28182,304,0
11.450825338999948,9234,1280,0
11.454785274000187,13171,7169,0
11.458817135000118,15827,2048,0
11.461897786000009,14099,7025,0
11.465879216999838,2992,768,0
11.469282574999852,96,3408,0
11.472854359999928,11346,3088,0
11.475833786999829,2560,768,3520
11.479865191000044,8962,9554,1264
11.48385437700017,14067,1440,0
11.487822800999766,3312,3840,1120
11.490868013000181,2608,3792,2752
11.495270485999754,0,2480,0
11.49785151900005,6369,2640,624
11.50182860699988,3840,7921,0
11.505830772000081,256,6657,3072
11.508866485999988,5297,10514,0
11.512930632000007,17268,7777,1968
11.516819622000185,11858,832,0
11.519831315999909,2016,4673,0
11.522834366000097,0,6369,0
11.526823631999832,11298,4817,0
11.530797567999798,8786,768,0
11.533805068999754,14003,1520,432
11.53782544700016,12034,3344,0
11.54216898499999,36921,1616,2608
11.544813840000188,21093,2416,0
11.548816192999766,26262,2096,0
11.552812380999967,15907,4913,0
11.555871606999972,3072,8338,0
11.560228862999793,0,1840,0
11.562955235000118,5665,1280,0
11.566827030999775,16564,704,2256
11.57080433300007,9906,864,4097
11.573839591999786,16548,2304,3520
11.57782153800008,6097,3504,0
11.581822267000007,28246,15283,6817
11.58614330499995,5665,3408,1696
11.588848436999797,9874,3184,0
11.592825364999953,4545,5537,0
11.595800791999864,0,560,0
11.598879292999754,0,480,864
11.602865090999785,1120,3328,384
11.606838127000174,7649,3616,8722
11.609879619999901,17108,6897,0
11.614250155999798,3152,2400,0
11.617836361000172,5649,3328,10498
11.621813963000022,16131,1184,0
11.624838392000129,1616,10082,0
11.62881706600001,14003,3504,0
11.631815468999775,4273,8946,0
11.636108840999896,2304,8418,464
11.639863401000184,21861,15107,1264
11.64381504899984,9106,688,6065
11.647803383999872,20565,5585,8962
11.650816006999776,9778,30711,0
11.655139256999973,47627,10898,32311
11.658844045000023,1040,6369,1328
11.662809972000105,3264,1568,0
11.665858414000013,560,3760,2352
11.669809754000198,2304,1968,1136
11.672884326999792,0,7345,0
11.676855158999842,768,256,0
11.679875497000012,2560,2000,0
11.683862001999842,1392,13731,0
11.686853899000198,16,560,544
11.690849712999807,13843,6417,1792
11.693887503000042,0,256,0
11.69811874700008,1520,6625,0
11.70190471199976,2272,2816,1984
11.704887521999808,10530,672,0
11.708865284999774,6673,5361,0
11.711902797999755,7089,688,0
11.715893126000083,3600,208,0
11.718892981999943,17140,752,0
11.723119086999759,8113,2096,0
11.726922047999778,3680,1792,4016
11.73088255399989,12627,10450,6113
11.733885622999878,6929,3344,720
11.737884499999836,9570,1632,1456
11.741875083000195,4353,5809,5105
11.744830655999976,144,4097,0
11.748826997999913,27398,12915,1520
11.752907909999976,5601,7281,11634
11.756851056999949,15475,9026,8097
11.760881290999805,8514,27398,3600
11.764868045000185,3792,1280,1456
11.767918065999766,6817,10274,0
11.771900215000187,9042,3328,0
11.774912072000006,0,768,0
11.777926648000175,2320,752,0
11.78189039400013,3312,2160,2416
11.78588960199977,7633,8882,3024
11.789786017000097,4193,528,0
11.792936913000176,10802,6913,608
11.796913409999888,0,13091,4833
11.799931614999878,7633,2608,0
11.803912014000161,0,3504,5329
11.80790256299997,15155,3168,3248
11.810897029999978,2496,5185,0
11.81486755700007,5649,4321,5489
11.818851404999805,5809,13939,544
11.821841477999897,3184,304,0
11.825894904000052,10530,8690,3376
11.829874678000124,0,16051,3760
11.833899572000064,3152,1968,0
11.83691557100019,4305,2304,944
11.840878565999901,1904,6609,0
11.843908708000072,1280,21429,0
11.847887324000112,10658,9746,4353
11.851865008999994,31863,11522,256
11.855856891999792,5889,624,0
11.858922028000052,7249,1968,0
11.862846007999906,65535,14563,13363
11.866849638000076,0,4961,96
11.869930664000094,6833,4337,0
11.873904245000176,14403,1920,0
11.876918656999806,608,8898,0
11.880848899999819,0,4657,4945
11.884854776999873,8626,12291,2592
11.88783793399989,8482,1024,0
11.89187865699978,1392,6049,0
11.894934076000027,432,11442,320
11.898876440000095,928,6049,0
11.901897750999979,0,6145,0
11.90584330799993,2528,3840,0
11.908900311999787,2336,13939,0
11.912847676000183,3712,4865,0
11.915853524999875,0,1520,0
11.919867497999803,3840,3632,336
11.922918981999828,6673,2128,0
11.926857423000001,256,9058,0
11.92991257299991,7505,1056,0
11.933911220000027,14339,10002,0
11.93786781100016,96,816,18692
11.940839444000176,12146,816,0
11.944847494999976,0,12851,0
11.947891321000043,20404,6033,0
11.951875633999862,10146,8914,0
11.954910223999832,5809,7985,800
11.958970594999755,13395,7889,5889
11.962850959000207,4817,3344,0
11.966885467999873,5473,2480,2640
11.96989752799982,8722,1024,2032
11.973906655000064,9330,5393,1440
11.977876460000061,2640,2240,0
11.981841780000195,9634,1872,4145
11.984849992999898,272,2304,2560
11.988858828000048,12691,4465,6353
11.992878914999892,10322,2976,0
11.995892662000188,0,3088,0
11.999850446999972,4881,304,2416
12.002878510999835,1712,4385,0
12.006859232999886,25638,1936,4497
12.010888832000091,14035,4097,2960
12.015168678999999,3872,4545,6161
12.019108735999907,30551,3328,4353
12.022808822000115,13043,1376,1504
12.026157218000208,15635,5329,784
12.030187754000053,20132,2816,0
12.034146426999996,13571,1088,0
12.037285171999883,2864,8882,0
12.041193043000021,18260,7985,0
12.044324552000035,96,3840,80
12.048131568999906,1600,1280,0
12.051114583000071,10866,5201,0
12.055221654999968,1584,5169,3328
12.058874553999885,992,13475,0
12.062056677999863,4497,1280,0
12.06595833900019,14003,1952,6897
12.070130662999873,224,1024,176
12.073203656999794,240,6337,0
12.076216890000069,0,0,0
12.080077766000159,0,4929,0
12.08318182999983,8786,944,3856
12.087306822999835,10818,7585,512
12.091143987000123,19204,2304,0
12.094320759999846,0,1584,192
12.098193016000096,18756,480,1952
12.101174365000134,8898,4865,0
12.105199688000084,5313,2128,3552
12.109245187999932,18532,4000,1104
12.113122965999992,448,1200,1008
12.11615891800011,4689,352,0
12.120084827000028,928,2496,0
12.123991225999816,11266,2304,6353
12.127170528000079,1280,5553,784
12.131090165999922,9458,5249,0
12.13506766599994,6257,1712,4097
12.138138861999778,10002,2624,0
12.142100722000123,0,16644,1632
12.14604007800017,3840,528,1120
12.149987621000037,26406,4865,5937
12.15298340199979,3616,5153,0
12.156004167999981,0,5585,0
12.159878932000083,0,64,256
12.162950452000132,3328,2416,0
12.166928902000109,7345,9058,5137
12.170898186000159,2272,5665,0
12.173910015999809,6705,48,0
12.177101090000178,9218,768,0
12.181106547000127,7425,3312,1392
12.185061812000185,1536,4513,1584
12.187975339999866,5937,9554,0
12.19209865799985,7393,6097,18900
12.196097933000146,0,15667,0
12.199068043999887,400,6593,6849
12.202989088999857,10994,5185,320
12.206978578999951,5921,11778,2784
12.210962681000183,4577,14787,2336
12.214007645000038,3168,9794,0
12.217967450999822,1504,3088,1168
12.221913077999943,0,4305,3328
12.226112532000116,13699,13459,4977
12.230146816999877,12034,15459,0
12.232970485999886,6401,2576,3296
12.237145694999981,8033,912,0
12.240205011999933,0,3568,256
12.244198466999933,1888,2656,3232
12.248080985999877,12002,3984,5729
12.251153486000021,32535,6929,0
12.255104287999984,2048,3184,0
12.259162534000097,11010,4321,656
12.263163912999971,6401,13219,12258
12.267080842999803,5857,16548,736
12.270124247999775,1632,768,0
12.274160138999832,16916,3152,0
12.277270316999875,4273,640,0
12.281031870999868,0,1536,2544
12.284218064000015,2400,5377,5665
12.288108783000098,7585,2608,0
12.291293619000044,2480,944,0
12.295207234999907,800,6161,2416
12.29908162799984,3680,1904,0
12.302136403000077,944,720,816
12.30512203599983,0,9314,0
12.309097335999923,3488,4113,0
12.313101838999955,3888,4449,0
12.31608560099994,320,3152,0
12.319419930000095,368,5457,0
12.323309183999754,2768,6961,0
12.327203498000017,19380,8978,14595
12.330396379999911,4881,9682,0
12.334349270000075,8786,7937,176
12.338280123000004,1056,1264,0
12.342256876000192,4753,13747,3392
12.345377893000204,15907,14595,0
12.349174621000202,17092,1840,0
12.352372536000075,3568,1504,0
12.356103648000044,1056,1216,0
12.360086658,5713,2448,736
12.364007780000065,3472,5217,4369
12.367127979000088,9490,1072,0
12.371247866999965,1968,592,2912
12.374387943999864,3072,2896,0
12.378169928999796,1024,2816,0
12.381372713000019,2576,3776,0
12.385212732000127,6913,7793,752
12.3891244739998,5073,7425,5377
12.393249002000175,10706,10402,0
12.396267437000006,1024,1792,416
12.400176437000027,10754,3552,0
12.404286087999935,2880,6497,3968
12.40823330100011,5153,5793,1280
12.411339047000183,3216,4353,0
12.415247201000057,10242,4241,0
12.418307947999892,0,2304,6625
12.422255693999887,8370,14675,0
12.426053253000191,560,7265,7537
12.429250515000149,6049,3744,3024
12.433154891999948,3632,2304,0
12.436339645999851,9202,768,0
12.440260655000202,0,992,1840
12.444233448999967,23317,1280,1248
12.447364667999864,1200,5121,7361
12.451337814999988,1936,17588,5441
12.455125740999847,0,13267,1840
12.458323091999773,960,2224,0
12.46215178500006,15091,6353,0
12.46614954100005,9842,9986,1440
12.470261819999905,10258,7425,5409
12.47327386400002,208,3840,0
12.477149167999869,10434,3120,1424
12.480975036000018,4465,5233,0
12.484211120000055,2288,1456,1808
12.488095407999936,464,16948,0
12.491946654999992,10258,368,1984
12.49511220300019,1440,13475,0
12.49896253199995,5969,8161,2288
12.50286062799978,1312,8482,0
12.505981730999792,1040,6257,0
12.509864695000033,32,1696,0
12.513016565999806,3536,10498,1616
12.517207077999956,0,4353,0
12.520180311999866,0,752,0
12.523004811000192,0,2192,0
12.527193026000077,1328,7537,0
12.530219692000173,1280,2704,0
12.534196651999991,5377,432,0
12.53713406299994,0,1056,1520
12.541201968999758,8818,1280,5201
12.544941458999801,4657,18004,0
12.548182867999913,7889,10466,816
12.552217568999822,0,22053,11122
12.556171195999923,16452,2880,0
12.559226293999927,768,9122,6929
12.564171998999882,29447,23717,19108
12.567226964999918,4097,27910,0
12.571109174999947,3664,1136,0
12.574108092000188,6337,4497,0
12.57814142999996,5169,32,0
12.581178063000152,2976,4209,0
12.585262585999772,9330,10418,0
12.5890962819999,13315,7009,4977
12.592197531999773,0,6209,4721
12.59618153800011,6625,1040,0
12.599223770000208,3328,4753,0
12.60327796699994,9218,6225,0
12.606190630000128,1712,1024,0
12.610310061999826,6513,2816,0
12.613396460999866,8882,1200,0
12.617300042999887,352,5537,0
12.620372186000168,10914,8754,0
12.624354410999786,11874,11522,0
12.62833508499989,4577,1584,1872
12.631404110999938,2608,768,0
12.635146584999802,5665,4048,0
12.638229747999958,2400,8434,0
12.642115880999881,8546,14243,816
12.646072698999888,3840,11154,0
12.650088435999805,20468,4513,6609
12.653353250999771,16660,2032,0
12.657321295000202,10546,10034,0
12.66118098600009,1792,11778,10866
12.665133795000202,9378,2272,0
12.668368581999857,5201,1792,768
12.672277392000069,4897,416,0
12.67615061100014,2320,20485,13075
12.679279213999962,7729,8466,0
12.683145921999767,0,11746,1792
12.68725213100015,1520,368,1280
12.690330200000062,688,7217,0
12.693386694999845,2496,672,0
12.697281969999949,848,2416,0
12.700396670999908,4401,3840,0
12.704322434000005,1696,4753,0
12.708133768000152,15651,2864,3504
12.712121204000141,12499,3760,2064
12.7152000709998,4913,7425,0
12.719391513000119,18532,1712,2816
12.72239680499979,0,7249,0
12.726189717000125,9042,2256,0
12.730259913999816,4273,1024,2096
12.734084001000156,5729,4129,5489
12.737335570000141,24117,3472,4785
12.741346966000037,9490,3312,0
12.745291038999767,848,1296,2304
12.748335681999833,1072,576,0
12.752296951000062,9890,9010,480
12.756204719999914,6593,3472,13763
12.759261263000099,6385,0,0
12.763084781000089,7457,5713,0
12.766164301000117,1776,8962,0
12.770093408999855,7537,12018,0
12.773200581999845,0,15459,6625
12.777156673999798,16,10994,5985
12.781047684999976,480,1024,0
12.784126801000184,3840,1824,0
12.787202605999937,0,3104,0
12.791177873999914,19412,4385,544
12.79512921200012,8706,544,1024
12.798914636000063,768,8850,1968
12.802018682999915,15379,10466,0
12.80601717699983,7169,1808,6769
12.810025837000012,10274,3088,5281
12.813205142999777,880,12595,0
12.817192551000062,23413,7985,4865
12.821163246000197,5489,8466,0
12.825151787999857,1296,9714,2928
12.828261440000006,10290,15107,0
12.832037041000149,5985,4289,2992
12.836099773000115,0,1296,4401
12.83916755600012,0,288,0
12.842196696999963,0,0,0
12.845245600999988,0,976,0
12.848945349000132,480,2384,0
12.85209316800001,5233,7937,0
12.855102209000052,0,336,0
12.859182383000189,0,1952,64
12.862227168000118,5713,5121,0
12.866142374999981,256,4097,2256
12.86944363900011,1568,3680,0
12.873298217999945,0,10050,0
12.877307924999968,5905,3504,2144
12.88039462200004,7697,7953,0
12.88434313200014,16740,2672,0
12.887435774000096,18228,3184,0
12.891433605000202,11522,14019,9170
12.895250988000043,4689,256,416
12.898429400000168,8738,3744,0
12.902354254999864,3088,2352,256
12.906050554000103,0,10338,0
12.909424254999976,3840,4833,0
12.913240388999839,4945,720,0
12.916314753999814,2912,4513,0
12.920252839000113,400,2416,0
12.92336143600005,5889,2336,0
12.927338242000133,5489,4545,368
12.930416526000045,7409,5537,0
12.93428248400005,480,6001,0
12.937417001000085,9218,1552,0
12.941298180000103,3264,96,0
12.944330988999809,0,768,0
12.947435095999936,6657,3824,0
12.95134346199984,13891,2592,0
12.95526909399996,208,3056,9010
12.958248222999828,288,624,0
12.96234692400003,5041,2304,0
12.965293889999884,5617,1024,6305
12.969315929999993,11554,14419,0
12.973320319999857,12787,12387,0
12.9762814300002,0,14227,880
12.980242425000142,7137,7729,6641
12.984373355000116,30471,8306,2272
12.988348882000082,1792,12355,768
12.991261295000186,5169,1360,0
12.995335144999899,3984,24117,0
12.999101283000073,4769,4289,0
13.002392114000031,5905,1632,576
13.006210122000084,4193,8850,5889
13.010258079999858,19108,720,0
13.013370871999996,8434,1504,0
13.01729566799986,1888,1024,0
13.020416075999947,1616,5745,0
13.024278113000037,7617,768,0
13.028248046000044,4849,11010,2528
13.031343489999927,1456,1584,320
13.03512955899987,7089,4032,448
13.038235878999785,0,416,0
13.042259299999841,1280,4881,0
13.045401031999972,12178,15619,0
13.049226469000132,1760,4577,0
13.053157717999966,592,12803,1280
13.05623165399993,7649,7281,0
13.060048557999835,0,2704,0
13.063222683999811,6097,3328,0
13.067085808999764,6433,1392,0
13.07034331900013,1888,2656,32
13.074248199000067,16339,1488,688
13.078017007000199,4369,2128,0
13.081220882999787,544,5169,0
13.085187974999826,37753,19668,2752
13.08893415500006,4369,2304,0
13.092012898000121,912,8274,0
13.095996266999919,7857,3872,7969
13.0999236130001,8786,4705,19940
13.103871435000201,1824,23157,5121
13.107262453000203,5585,5105,7825
13.111144961999798,4353,8290,0
13.11490248500013,7425,1376,3104
13.118198539999867,4561,864,0
13.12113335999993,0,10578,0
13.125140506000207,1904,4609,1232
13.129116660999898,10706,7201,6689
13.132947072000206,3072,2096,0
13.136256974999924,2720,2880,0
13.140383008999834,288,11074,3168
13.14423841300004,3072,6881,0
13.147235208999973,8642,1184,2304
13.151166526999987,3152,12675,0
13.154259164999985,0,1104,0
13.158153839000079,6705,2016,3472
13.162126042000182,8113,5985,2160
13.165054965999843,11522,768,0
13.169252976999815,2768,352,4113
13.1731706139999,25030,4193,5025
13.17713790200014,8434,6321,4273
13.180246706000162,1696,976,0
13.1843431960001,41434,4353,0
13.188329190999866,22069,2672,4449
13.192160194999815,1232,5185,1824
13.195480106000105,26822,1904,12867
13.19935974200007,1792,8946,2048
13.203168059999825,0,3840,0
13.206292775999827,5633,2416,1968
13.210882730999856,14595,3888,0
13.214627049999763,11250,2016,0
13.217108903999815,0,7633,0
13.220158050999999,0,4417,0
13.224106394000046,768,2768,5681
13.227196723999896,10162,4048,0
13.231094653000127,3248,2112,0
13.23502223000014,3920,6161,0
13.238135486999909,5153,3920,0
13.241956985999877,1088,1792,0
13.245032573000117,944,4353,0
13.248931015999915,11602,23781,0
13.25197572299976,2880,13923,0
13.255942452999989,6113,7233,0
13.258944940999754,0,2160,0
13.262926302999858,6801,6081,9186
13.266916044000027,10242,1632,3280
13.269986415999938,4305,1504,0
13.27394447200004,1264,4273,0
13.276970481999797,688,144,0
13.28095644699988,8658,768,2144
13.284928934000163,0,5809,8722
13.288005708000128,5601,2608,0
13.291940790999888,4369,1200,112
13.294954151000184,4625,928,0
13.298945017999813,4016,2160,368
13.301955259999886,0,11506,0
13.305967644999782,9074,13379,2128
13.309968845000185,10210,10642,432
13.312951860999874,0,544,0
13.316948691000107,11570,16820,10786
13.320962619000056,0,12835,5409
13.323974842000098,256,5569,0
13.32791609800006,4609,8738,0
13.331940274999852,0,2304,0
13.334995766999782,10418,2080,0
13.338012311000057,9474,7777,0
13.34220846800008,0,5889,0
13.345250642999872,256,7793,1328
13.348922208000204,1136,1312,2096
13.35298300400018,13267,4833,0
13.356170681000094,0,624,0
13.358933256,0,672,944
13.36289647600006,9074,5921,3840
13.366898151999976,2352,1936,0
13.36993107699982,4064,11266,0
13.374193234999893,720,13011,0
13.378141952000078,6401,15475,7521
13.381200117999924,576,4769,32
13.385110700000041,0,9186,0
13.388129874999777,17684,3376,0
13.392080375000205,5889,1136,0
13.395174594999844,1136,6001,0
13.39908262200015,12643,4785,0
13.4021177300001,0,18644,3232
13.406009836000067,29527,18068,5889
13.410080801999811,13571,19476,0
13.414225373000136,5953,21541,15395
13.418269261000205,28839,19828,7377
13.421438244,912,912,0
13.425390906999837,3840,4337,5009
13.429309124000156,10162,4673,4657
13.43316961599976,8370,2272,0
13.436309183000049,3408,3232,0
13.440233892999913,4881,1024,0
13.443433035999988,1280,3120,0
13.44734715100003,752,2048,0
13.450280558000031,0,1328,0
13.453289101999871,192,816,0
13.457132914999875,0,256,0
13.460275805000038,1952,2816,0
13.464366710999911,5505,5329,0
13.467432330000065,3680,4016,0
13.471403507000105,6465,1104,6417
13.475111680999817,10162,9330,0
13.479195866999817,10290,23221,26614
13.48235075499997,19460,2864,0
13.486150673999873,12931,3424,0
13.489331983999818,0,7649,0
13.493391193000207,8113,5025,2912
13.496335750000071,7345,8962,0
13.50029109299976,14883,12467,752
13.504395555999963,16692,7153,96
13.508359607999864,8978,5377,3584
13.511490018000131,8482,4865,0
13.51532452299989,1600,6945,4113
13.5193091860001,736,1280,9554
13.522301750999759,6913,304,0
13.526326476000122,5361,1008,6033
13.530300394999813,2304,3456,14195
13.534212054999898,14179,21205,80
13.53821161499991,15267,6849,1728
13.542301299999963,5985,8962,18004
13.545221656000194,1072,48395,48
13.549117769000077,1888,144,0
13.552281064999988,0,0,1872
13.555316645999937,10770,0,0
13.559375610000188,1584,7345,352
13.563338066000142,4753,9538,0
13.566315054999905,9058,2720,0
13.570359482000185,6769,1648,768
13.57325912799979,0,112,0
13.577248027999758,2768,1424,0
13.580304219000027,4657,4080,992
13.584396161999848,22933,3184,14963
13.58826260800015,34920,7281,17012
13.592268747000162,1024,41786,0
13.596218789999966,27238,8978,51724
13.600326805999885,51212,59774,44650
13.604332733999854,18036,16948,3232
13.608164282999951,2448,14851,11490
13.612327962000109,31399,9298,8818
13.615258697000172,0,8306,13235
13.619317618999958,16147,4897,0
13.623131255999851,20068,25622,9938
13.627102278000166,11026,24982,6465
13.63027483299993,0,9218,0
13.633230598999944,0,912,0
13.637171997999758,3168,9586,2304
13.640431289999924,0,400,0
13.644191558999864,1904,12018,0
13.648146456000177,10706,3952,3792
13.652016186999845,12242,7777,2800
13.65599580199978,20244,5457,18772
13.65901639699996,1520,1168,0
13.662980814000093,16211,7697,8113
13.667092123000202,20276,6401,6225
13.671059435000188,1344,10594,4401
13.675108561999878,21765,21877,0
13.678193448000002,5553,4048,0
13.682179840000117,0,4257,592
13.685223320000205,2992,19012,3488
13.689187389999915,1104,10498,9074
13.693135528999846,12899,34472,7393
13.69723906399986,5697,8882,6657
13.701264899999842,11634,6449,6465
13.705242498000189,25974,14515,0
13.709201529999973,1200,2928,10306
13.71227685599979,17140,1824,0
13.716183912999895,25430,26374,4833
13.720218850000037,0,1568,9202
13.724125575000016,2736,4433,11522
13.727288030000182,10098,9650,544
13.731347219999861,10930,10866,26710
13.735415180000018,5985,7793,11586
13.739206743000068,0,5521,0
13.74233108899989,2272,2848,5473
13.746293083000182,1408,5665,3888
13.750254483999925,9506,6145,0
13.753274272999988,0,6913,0
13.757388680000076,12851,4385,5553
13.760510841999803,2656,30311,0
13.764311770999939,2624,2576,4705
13.768444560999797,19204,7761,3744
13.772387539000192,1296,17780,3296
13.776216468999792,20212,5121,304
13.779385205999915,0,1264,256
13.783278926000094,336,11426,0
13.786269152999921,5329,1856,0
13.790338222000173,20997,14899,7313
13.794260839999879,0,12947,816
13.798219876000076,20404,1648,2048
13.801509419000013,6353,12130,0
13.805200785000125,21909,6481,0
13.809114275999946,22613,256,0
13.812457557000016,16932,3520,0
13.816222773999925,1280,1040,0
13.8203081810002,5873,10482,5377
13.823338694000086,14643,2464,0
13.827229518999957,15139,5201,0
13.830464198999834,14643,6145,0
13.834227717999966,1792,6033,272
13.838324716999978,8113,2064,0
13.841371858000002,7905,7057,0
13.845376897999813,5377,1488,0
13.848369721999916,4000,3648,0
13.85225983700002,7185,7089,0
13.855321666999771,400,2864,0
13.859352238000156,3552,976,0
13.862301623999883,0,3088,0
13.866173460000027,5201,1584,0
13.869445727999846,4465,1200,0
13.873143616000107,1136,4353,0
13.876248725000096,560,7089,0
13.880302088999997,7073,4673,0
13.883236538999881,0,3168,0
13.887173193999843,11634,14115,0
13.89034313000002,176,2816,5889
13.894287867000003,1872,3040,400
13.898157746999914,11522,688,0
13.901294132000203,2800,2320,0
13.905376154999885,20965,2896,0
13.909191668999938,11266,14051,4817
13.912320931000068,2592,6721,0
13.916176334999818,7553,1280,0
13.91930074899983,1840,9506,0
13.923091884999849,4801,0,0
13.926220798000031,6145,3072,0
13.929345628000192,0,3872,0
13.933148499999788,2208,2480,928
13.936209126999984,0,3872,0
13.9401727139998,864,3840,1520
