time,emg1,emg2,emg3
0.0005151350001142418,0,0,0
0.0034647689999474096,4945,0,0
0.007253724000293005,7425,0,0
0.010271268999986205,0,0,0
0.013350434000130917,6705,3696,0
0.017236308000065037,2928,1536,0
0.020402467000167235,368,816,0
0.024298677999922802,2480,2160,0
0.02729229700025826,2304,1280,0
0.03126992200031964,4129,2048,0
0.034296519000236,9410,2592,0
0.03829829100004645,592,2208,0
0.04133408400002736,0,1712,0
0.04586702899996453,4353,1328,0
0.048250241999994614,2864,2768,0
0.05223900100008905,3616,1440,0
0.0552748690001863,7089,2704,0
0.058284492999973736,0,1728,0
0.06224132100032875,1040,6129,0
0.0653105310002502,9314,1840,0
0.0692553339999904,4657,3248,0
0.0732567720001498,1984,1632,0
0.07628725499989741,4080,2000,0
0.0792737310002849,0,2336,0
0.08324525900025037,1008,6641,0
0.08629092000001037,5345,1024,0
0.09032114899991939,3536,5169,0
0.09419847300023321,3696,1952,0
0.09728436600016721,5297,2304,0
0.1002772219999315,0,2416,0
0.10449721200029671,4705,720,0
0.1072537260001809,1520,1856,0
0.11151649500015992,7601,2672,0
0.11430186500001582,11042,2640,0
0.11864384399996197,3776,3424,0
0.12159820100032448,480,1792,0
0.1255449119998957,8562,2720,0
0.1286003370000799,0,1376,0
0.13253764799992496,5473,1744,0
0.13554566399989199,6817,1360,0
0.13945295900020938,672,4032,0
0.14251809200004573,1872,1824,0
0.14647836499989353,2288,1280,0
0.1495729719999872,1536,1504,0
0.15350075200012725,3072,6993,0
0.1565200410000216,3600,1584,0
0.16038529400020707,3152,2384,0
0.1644164389999787,2464,2512,0
0.16763391800031968,4080,2080,0
0.17163539500006664,1200,1328,0
0.17473403000030885,8962,3328,0
0.1786880839999867,1680,1776,0
0.18172381200020027,736,1840,0
0.1854531480003061,2096,1552,0
0.18865040700029567,2080,2048,0
0.1925910110003315,5265,2368,0
0.19579488299996228,4961,1424,0
0.1987303079999947,0,144,0
0.20259040900009495,3296,3648,0
0.20661256700032027,6673,1440,0
0.2097664259999874,3184,2368,0
0.21346696299997348,4273,1824,0
0.2166635660000793,4337,1616,0
0.21963967800002138,0,1120,0
0.22363441400011652,5377,4913,0
0.22660720400017453,7281,3184,0
0.23055179900029543,5585,2816,0
0.2344459360001565,5377,1872,0
0.23761258000013186,4385,2624,0
0.24060925699996005,0,1296,0
0.24459904600007576,7457,7441,0
0.24763148700003512,0,912,0
0.2514853790003144,960,1936,0
0.25451267600010397,7857,3408,0
0.2586336080003093,1232,1792,0
0.2615282780002417,0,720,0
0.26480336800022997,4529,1008,0
0.26851021399988895,0,2000,0
0.2716485040000407,5361,2304,0
0.27546462500004054,6881,1184,0
0.2785422010001639,2336,1872,0
0.2824445060000471,896,2304,0
0.28559729300013714,8562,1200,0
0.2894495030000144,48,768,0
0.29257616099994266,8514,3328,0
0.2964867350001441,2784,1136,0
0.2995479700002761,1840,880,0
0.3033633899999586,1888,1792,0
0.30641448300002594,8962,3040,0
0.3103714020003281,1248,336,0
0.3133859310000844,3232,1504,0
0.31739719000006517,4032,1568,0
0.32049615999994785,1184,2048,0
0.3245896410003297,1616,1792,0
0.3273736870000903,768,1968,0
0.3315206130000661,6417,1440,0
0.3346170630002234,11378,2304,0
0.33859276100019997,3056,2112,0
0.34158938600012334,0,1280,0
0.3456499080002686,3840,2336,0
0.3487806640000599,224,2048,0
0.35253558400017937,4593,2080,0
0.3556349489999775,6913,2080,0
0.35948551799992856,1056,1840,0
0.36254935400029353,864,1280,0
0.3664611829999558,3312,2304,0
0.3695564770000601,816,1712,0
0.3736463850000291,2560,2128,0
0.3767956800002139,7601,2912,0
0.3806478189999325,1280,2224,0
0.3836508370000047,4097,1600,0
0.3876075450002645,2928,2400,0
0.3906752360003338,1280,1424,0
0.3945053940001344,9442,6337,0
0.3978029320001042,2352,912,0
0.40158128400025817,80,1104,0
0.40482251999992513,3104,1440,0
0.4076568549999138,0,512,0
0.41175164800006314,5105,3616,0
0.4155548280000403,7057,2480,0
0.4188234289999855,2080,2448,0
0.4226698170000418,1056,976,0
0.42567477900001904,8834,2560,0
0.42882337199989706,0,768,0
0.43271983900012856,4257,1312,0
0.43569642600004954,4673,1744,0
0.43969477900009224,144,848,0
0.4426598540003397,1056,1792,0
0.44668827100031194,3168,768,0
0.4497839420000673,848,2032,0
0.4537333220000619,1168,1280,0
0.45671616300023743,3680,2064,0
0.4606199810000362,304,1520,0
0.4637328960002378,2480,1520,0
0.467723603000195,3696,2240,0
0.4706769610002084,1008,1440,0
0.47463245400012966,5889,2560,0
0.47771492900028534,1712,1792,0
0.48162486899991563,784,2304,0
0.48471555500009345,3552,1792,0
0.4885037660001217,0,1232,0
0.4916580040003282,1952,1824,0
0.4955275820002498,5809,2304,0
0.4987747700001819,1168,2480,0
0.5025009089999912,336,2000,0
0.5056322680002268,7169,1296,0
0.5096886060000543,1584,1232,0
0.5127799730003062,3600,992,0
0.5165255639999486,4305,1824,0
0.5195381379999162,0,1072,0
0.523486153000249,2544,1648,0
0.5266886560002604,8370,2048,0
0.5297612370000024,0,1904,0
0.5336669150001399,1616,864,0
0.5368926250002914,3328,2368,0
0.5398931650001941,0,848,0
0.5437316080001438,2400,3040,0
0.5476564119999239,3584,2304,0
0.5507295380002688,1488,2560,0
0.5545779710000716,4785,2064,0
0.5578182490003201,2624,2096,0
0.5607115210000302,0,1216,0
0.5646812810000483,9138,2064,0
0.5685300310001367,2304,3088,0
0.5715757940001822,4064,1568,0
0.5754805340002349,5137,1520,0
0.5786162310000691,1504,2256,0
0.581657406999966,0,1696,0
0.5855914799999482,5377,6289,0
0.5886964390001594,1120,1568,0
0.592576420000114,5393,3104,0
0.5964594780002699,2816,1824,0
0.599622219000139,1904,2256,0
0.6034175760000835,688,2288,0
0.6064122140001018,8962,2816,0
0.6094632540002749,0,928,0
0.6133475770002406,2128,656,0
0.6163757560002523,2320,2160,0
0.6204715490002854,608,1824,0
0.623532128000079,48,1232,0
0.6273536440003227,4241,1648,0
0.6305323490000774,3200,2192,0
0.6344591410002067,3344,1456,0
0.6375440430001618,2480,2864,0
0.641502975000094,256,2304,0
0.6445469750001394,4353,1280,0
0.6486050940002315,1280,1696,0
0.6515775500001837,3408,1840,0
0.655507222000324,7137,2416,0
0.6586717600002885,1344,1856,0
0.6624823880001713,0,368,0
0.6656399500002408,7409,2304,0
0.6695173739999518,1488,2576,0
0.6725015100000746,4321,2288,0
0.6765059800000017,3936,2144,0
0.6797003530000438,1024,1280,0
0.6835039620000316,2704,1424,0
0.6865789840003345,4961,1040,0
0.6906263979999494,2080,1792,0
0.6936895620001451,2768,1744,0
0.6977518180001425,2976,7537,0
0.7006962270002077,672,1648,0
0.7047742600002493,4097,7137,0
0.7077708589999929,2032,1632,0
0.7116857710002478,2832,5025,0
0.7154815700000654,7281,2832,0
0.7185812880002231,3424,2080,0
0.7217479310002091,176,1968,0
0.7256965440001295,9074,1840,0
0.7288980240000456,496,912,0
0.7326460770000267,1984,4945,0
0.7358397699999841,3808,2048,0
0.7398274709998987,4465,3072,0
0.7428795750001882,400,880,0
0.7466841800001021,2912,1488,0
0.7498542970001836,96,1024,0
0.7537964490002196,2768,1520,0
0.7567636980002135,3088,1360,0
0.7606179620001967,880,576,0
0.7637164540001322,608,2624,0
0.7677593240000533,3328,1520,0
0.7706753340003161,2880,1040,0
0.7747872899999493,6673,1840,0
0.7777942400002757,2816,2416,0
0.781784633999905,1264,2336,0
0.7847896400003265,2560,2480,0
0.7887939560000632,256,2384,0
0.7918951720002951,5009,1968,0
0.795669701999941,7441,1536,0
0.798832000999937,0,1024,0
0.8017759419999493,0,1440,0
0.8056950120003421,3440,5377,0
0.8097309069999028,1072,1648,0
0.8127255540002807,5009,2656,0
0.8165644700002304,3168,208,0
0.8196402440003112,2000,2464,0
0.8228892669999368,880,2368,0
0.8266580340000473,10242,4433,0
0.8296792129999631,0,1456,0
0.8337059170003158,4145,7425,0
0.8368253700000423,3920,1648,0
0.8405547600000318,3392,4273,0
0.8439028660000076,768,3664,0
0.8478124500002195,3344,5201,0
0.8515004129999397,2304,1344,0
0.854676131999895,7169,3536,0
0.8587265959999968,1584,2304,0
0.8617271980001533,1872,1456,0
0.8654519930000788,3792,1616,0
0.8686714630002825,1328,1904,0
0.8725450300003104,6753,2016,0
0.8756943280000087,6001,2736,0
0.8795232309998937,0,1552,0
0.882637330000307,2576,2144,0
0.8865320530003373,3600,1456,0
0.8896356330001254,1888,1536,0
0.8934447760002513,1296,1488,0
0.8964963070002341,3344,1808,0
0.8994838359999449,0,3216,0
0.9033858339998915,3328,3008,0
0.9073598790000688,5201,1520,0
0.9105175370000325,3552,2960,0
0.9145835610001996,2784,1792,0
0.9175861570001871,1744,1888,0
0.9206000470003346,0,1200,0
0.9245698879999509,7025,4048,0
0.9275809190003201,944,1904,0
0.931574178000119,6193,6033,0
0.9353021950000766,7265,1952,0
0.9385682360002647,4145,2256,0
0.9425870730001407,2272,1568,0
0.9456484580000506,7297,2144,0
0.9496064079999087,560,1392,0
0.9524527480002689,6257,2304,0
0.9565893550002329,3168,2224,0
0.9596306819998972,1792,1200,0
0.9636584869999751,848,1648,0
0.9664815629998884,3040,2192,0
0.969693351999922,2224,0,0
0.9735564239999803,3136,4881,0
0.9774296139999024,2624,1696,0
0.9803169550000348,2288,3328,0
0.9833821699999135,2240,0,0
0.9876213120001012,1216,2096,0
0.9906183450002572,3328,1296,0
0.9946984590001193,4353,6705,0
0.9977837629999158,2320,2048,0
1.0015790090001246,3472,2304,0
1.0054159880000952,5057,1200,0
1.008593877000294,432,1712,0
1.01263305700013,4129,1200,0
1.0156752299999425,7425,2480,0
1.0184373040001446,912,816,0
1.0225932090002061,2304,5489,0
1.0266396570000325,4145,2720,0
1.0295264720002706,2624,1904,0
1.0335739080001076,2176,1968,0
1.0366988010000568,5297,1456,0
1.0396036659999481,0,1728,0
1.0435391800001526,0,5809,0
1.0466816930002096,6097,2400,0
1.0504745940002067,1744,2304,0
1.053796397000042,2816,1040,0
1.0577783220001038,2032,1184,0
1.0607119790001889,208,1680,0
1.0647778309999012,4353,1536,0
1.067720996999924,4097,2304,0
1.0717065250000815,5921,3024,0
1.0747146550002071,6113,560,0
1.0786365630001455,2304,2320,0
1.081779052999991,768,2064,0
1.085592146000181,3088,544,0
1.088893021000331,1072,1808,0
1.0927973130001192,3936,2288,0
1.0959484640002302,5809,1136,0
1.0996375270001408,0,5617,0
1.1026597899999615,0,1856,0
1.1059568750001745,5425,832,0
1.1097978980001244,0,7777,0
1.1128858669999317,4625,1584,0
1.1167974660002074,2288,2256,0
1.1197095890001947,1184,1312,0
1.1236705910000637,0,1744,0
1.1269339710001987,7073,1712,0
1.1305112640002335,1408,2304,0
1.1337912070002858,3216,2368,0
1.137818764000258,2896,1136,0
1.1406810580001547,640,1280,0
1.1447615490001226,1952,480,0
1.1478602550000687,5233,1936,0
1.1517828790001658,5457,1712,0
1.1549202250002963,7073,2576,0
1.1586290750001353,1232,1280,0
1.16166301200019,768,1472,0
1.165549540000029,7985,1584,0
1.168694448000224,416,1936,0
1.1726079140003094,7345,1824,0
1.175700149000022,6209,2832,0
1.1787574760001007,0,1280,0
1.1826704720001544,1840,2640,0
1.1865288910003073,4753,1024,0
1.1895642730000873,144,1456,0
1.1934543219999796,4353,2608,0
1.1965084640000896,4721,2624,0
1.1995117080000455,0,1328,0
1.2035353960000066,768,6001,0
1.2067111589999513,3104,768,0
1.2105349490002482,2704,2064,0
1.2135347280000133,4273,2640,0
1.217602541999895,5121,2352,0
1.2204369139999471,0,1440,0
1.2245713830002387,2608,1120,0
1.2276517620002778,4273,1312,0
1.2316765360001227,5121,3072,0
1.234734975000265,9202,2576,0
1.2384901580003316,3072,2400,0
1.2417098169999008,0,1488,0
1.245687160000216,4273,1328,0
1.2486271220000162,208,1344,0
1.252483115999894,5841,1872,0
1.255733538000186,3120,976,0
1.259698759999992,1344,1472,0
1.2628593459999138,928,1680,0
1.2667774730002748,7857,1344,0
1.269645944000331,1632,2016,0
1.2736754370002927,1536,1792,0
1.2768956110003273,2656,1808,0
1.2798266449999574,0,256,0
1.283757462000267,1520,5089,0
1.287664464000045,5137,1776,0
1.2906684449999375,5681,3632,0
1.2947580380000545,3856,2224,0
1.2977132340001845,1904,3264,0
1.3016629779999676,624,1632,0
1.3048592370000733,5073,2480,0
1.3087375980003344,736,2320,0
1.3117101160000857,6913,2560,0
1.315753536000102,8482,2656,0
1.3187139260003278,2064,1424,0
1.3227881810003055,1760,1840,0
1.3258997279999676,6065,1200,0
1.3296030629999223,480,416,0
1.3327530520000437,4513,1792,0
1.3368072460002622,3408,2256,0
1.34001562200001,1440,1648,0
1.3437121390002176,1136,1008,0
1.3470009309999114,6097,1056,0
1.350691936000203,2048,2768,0
1.3538259320002908,5553,1632,0
1.3577498330000708,5217,2304,0
1.3607121350000853,432,1088,0
1.364829297000142,1552,976,0
1.3678353250002147,2880,3184,0
1.371847889000037,3696,1840,0
1.3749150329999793,7697,2384,0
1.378683648000333,1296,7265,0
1.3819971339999029,224,1280,0
1.3856788299999607,4865,7313,0
1.3889131700002508,768,2256,0
1.3928376540002319,3840,1280,0
1.3959114029999,6225,1504,0
1.3998019690002366,960,4129,0
1.4027268479999293,0,1728,0
1.4066889559999254,5889,1840,0
1.4098856170003273,928,1216,0
1.4129432499998984,2400,80,0
1.4168415419999292,4497,3440,0
1.419767055000193,0,1296,0
1.4237446010001804,768,1328,0
1.4268004569998993,4529,1536,0
1.4306158300000789,1904,2048,0
1.4338604120002856,1696,1296,0
1.437754649999988,3984,4369,0
1.4407282390002365,0,1120,0
1.4446741780002412,2608,1712,0
1.4479469349998908,1920,1968,0
1.4516646860001856,3136,2576,0
1.454723463999926,8562,3152,0
1.4586387350000223,1904,1248,0
1.4616882559998885,0,1776,0
1.4655819770000562,7169,1584,0
1.4687423290001789,0,1472,0
1.471749309000188,4529,2256,0
1.4756949420002456,5441,3792,0
1.4787191670002358,0,1200,0
1.4826068050001595,848,1712,0
1.485875820000274,5121,2192,0
1.4895370080002976,1184,1296,0
1.492548550000265,1056,1872,0
1.4964751350003098,3664,4273,0
1.4994907820000662,0,512,0
1.5035707790002562,976,2208,0
1.5066131799999312,6001,2384,0
1.5096620849999454,0,1392,0
1.5136798739999904,4273,7425,0
1.5166583990003346,3072,2800,0
1.5204789170002186,0,4353,0
1.5236096910002743,0,2528,0
1.5267398670002876,944,1808,0
1.5304387559999668,5681,4481,0
1.5345677509999405,4945,1568,0
1.5377132850003363,5729,3088,0
1.5404986690000442,0,928,0
1.5445827379999173,3552,864,0
1.5476890970003296,2848,1840,0
1.5515047170001708,1504,1888,0
1.5548015650001616,6449,2464,0
1.5586952660000861,1024,1840,0
1.5618959160001396,912,2320,0
1.565852759000336,3328,1456,0
1.5688914090001163,784,1808,0
1.572841456000333,2288,2000,0
1.5759353130001728,5345,2480,0
1.5798028700000941,368,432,0
1.5829314130000967,1136,1456,0
1.586675328000183,7745,2528,0
1.58989618600026,992,1280,0
1.5937624220000544,1376,1568,0
1.5968437090000407,3792,1664,0
1.6005349239999305,0,1712,0
1.6038217240002268,864,1824,0
1.6078173989999414,4289,2640,0
1.6107669030002398,2416,3328,0
1.6148573580003358,5553,1616,0
1.617811580000307,4016,2912,0
1.6217082690000098,688,2144,0
1.6249680880000597,2960,1888,0
1.6288599560002694,1792,2464,0
1.631846663000033,1536,1616,0
1.6356544170002962,4689,2704,0
1.6388349910002944,1520,1120,0
1.6426924950001194,96,1904,0
1.6458490770000935,7745,1744,0
1.649691958999938,272,2256,0
1.6528710090001368,5489,2672,0
1.656939249000061,5153,1792,0
1.6599583600000187,288,2096,0
1.663752082999963,1808,1600,0
1.6670174230002885,3968,2144,0
1.6706256770003165,1296,2816,0
1.6739246300003288,800,1616,0
1.6778139699999883,2976,2080,0
1.6807294430000184,0,720,0
1.6845805759999166,2464,2464,0
1.6878993069999524,9986,2016,0
1.69173956800023,1648,2304,0
1.6948946500001512,8770,2096,0
1.6988488920001146,1088,1152,0
1.7018650089999028,2016,2080,0
1.705875868000021,5217,1456,0
1.708880001000125,0,1664,0
1.7128030839999155,4945,2704,0
1.715932160000193,6513,2000,0
1.7187805590001517,352,816,0
1.7229284290001488,4945,3200,0
1.7268297460000213,6481,1184,0
1.7299233950002417,4177,3664,0
1.7330180120002296,3408,624,0
1.7369826920003106,5681,2864,0
1.740018713000154,48,1696,0
1.7438983340002778,48,6561,0
1.74704590500005,4929,1792,0
1.7507238940002026,2656,1440,0
1.7537729820001005,3616,1056,0
1.757486993999919,2160,2368,0
1.760479203000159,592,2400,0
1.764479367000149,2320,1488,0
1.7675030190002872,2000,3056,0
1.7714785799998936,8386,4689,0
1.7748046680003426,8786,1840,0
1.7787444360001246,2720,2000,0
1.7817817019999893,928,1248,0
1.785700327000086,10034,3056,0
1.7887434819999726,432,816,0
1.7926615040000797,9218,4273,0
1.7966083520000211,5089,3072,0
1.799627693000275,1200,1792,0
1.8035843780003233,944,1744,0
1.8066494630002126,7169,1792,0
1.8106895099999747,1184,2224,0
1.813784439000301,3504,1792,0
1.8177481810002973,2384,2224,0
1.820771397000044,1280,2048,0
1.8248698990000776,3344,1456,0
1.8278490460002104,2160,1792,0
1.83187633200032,1968,1456,0
1.8348207770000045,9106,2848,0
1.8387577650000821,1392,1376,0
1.8418959700002233,0,784,0
1.8457222970000657,3920,2560,0
1.8487628570001107,0,1872,0
1.8518711060000896,2992,1600,0
1.8558905439999762,6945,6065,0
1.8589683909999621,800,1280,0
1.8628807230002167,336,5233,0
1.8659994409999854,5873,1584,0
1.8698050160001003,1264,3920,0
1.8730157340000915,4289,2720,0
1.87696577800034,5393,3360,0
1.8799513429999024,768,928,0
1.8837945059999583,1328,7697,0
1.886949149999964,5169,2224,0
1.8907174440000745,4961,3632,0
1.8939538980002908,2960,640,0
1.8979583039999852,2608,5905,0
1.9007867750001424,336,528,0
1.904808592000336,2592,432,0
1.9077618330002224,0,2160,0
1.9118553450002764,2320,1280,0
1.9148532180001894,7169,2896,0
1.9187510120000297,1840,1840,0
1.9219558300001154,1056,1648,0
1.9257275140003003,6145,1280,0
1.928766447000271,48,2048,0
1.932614543999989,3280,672,0
1.9357007450003039,6417,3216,0
1.938497702999939,0,1456,0
1.942468659000042,768,1792,0
1.9455181010002889,6609,1456,0
1.9494959819999167,256,1504,0
1.9525196899999173,6545,1888,0
1.9564934049999465,5729,2784,0
1.95948960800024,0,1296,0
1.9634533010002997,2064,848,0
1.9665081210000608,5281,1248,0
1.9704821410000477,432,1136,0
1.9735091460001968,3040,2224,0
1.977524483000252,2896,2640,0
1.9805477270001575,640,1296,0
1.9846816070003115,2400,1792,0
1.9877132300002813,4449,2560,0
1.991766593000193,4353,1680,0
1.994751436000115,8962,2848,0
1.9987253790000068,2976,2992,0
2.001646838999932,0,1056,0
2.005669788999967,7281,1072,0
2.0088150619999396,976,2320,0
2.011853093999889,3888,608,0
2.0156290039999476,7169,2208,0
2.018633660999967,528,768,0
2.0227016090002508,528,8354,0
2.025987478999923,6913,2048,0
2.029678587000035,688,6865,0
2.032973779000258,2672,2304,0
2.036759743999937,5265,6913,0
2.0399049350003224,0,1520,0
2.0436878320001597,1232,512,0
2.0469205230001535,5041,1104,0
2.0499956860003294,0,1872,0
2.053700039999967,6401,3840,0
2.0575340770001276,3328,2720,0
2.0605680960002246,2656,2608,0
2.0644834810000248,3072,768,0
2.067559896000148,6097,2768,0
2.070798219000153,224,1840,0
2.074810852000155,8866,1184,0
2.0788727260000996,2304,2256,0
2.081745109000167,256,1552,0
2.085545313000239,6177,1728,0
2.0887324290001743,464,2144,0
2.092728253000132,5761,2032,0
2.095789135999894,6401,2592,0
2.0988414910002575,480,160,0
2.102776013000039,0,4753,0
2.105788070000017,6417,1264,0
2.10975223000014,1792,1792,0
2.1128555270001925,4657,1200,0
2.1168106459999763,5633,2080,0
2.1197629870002856,0,1648,0
2.1237047990002793,1248,1824,0
2.126745191000282,3856,1248,0
2.130565625000145,448,2256,0
2.1336890340003265,3632,2000,0
2.137799133000044,2384,2288,0
2.1408230980000553,0,1792,0
2.1447192180003185,3328,1568,0
2.147744037999928,4625,3344,0
2.150946951000151,608,272,0
2.1549836220001453,10898,4497,0
2.1589168069999687,1808,1744,0
2.1620310460002656,1536,1280,0
2.16593849300034,5265,1392,0
2.168774959000075,864,2240,0
2.1729143770003247,4705,1568,0
2.1760062970001854,4529,928,0
2.1788629130001027,0,1376,0
2.1829532000001564,0,7153,0
2.1858708990002924,8434,2048,0
2.188940833000288,0,1760,0
2.192860942000152,5585,3440,0
2.1967510970002877,4449,2304,0
2.1998787420002373,1520,2224,0
2.2037669490000553,1360,1744,0
2.2070282009999573,5217,848,0
2.2108050320002803,1280,1776,0
2.2138840210000126,5665,2256,0
2.2178400050001983,3616,1776,0
2.2207921399999577,432,800,0
2.2248222880002686,4129,3168,0
2.227872696000304,4785,2240,0
2.231920657000046,2576,2304,0
2.2348147020002216,9010,1936,0
2.238695748000282,1008,1888,0
2.241807324000092,720,1904,0
2.245674261000204,5649,2352,0
2.248768700000255,816,2384,0
2.2527501240001584,5633,1168,0
2.25605253599997,5265,2784,0
2.2598513299999468,0,1264,0
2.262838221000038,3296,2528,0
2.2669300340003247,5377,2704,0
2.2699023220002346,400,1872,0
2.273725427000045,4801,2544,0
2.2769155840001076,3328,1472,0
2.27979182900026,0,1184,0
2.2837835549999,0,8866,0
2.286836135000158,4849,1872,0
2.290756963000149,1104,1456,0
2.2937933369998973,3856,1328,0
2.2977938200001518,2464,2560,0
2.3007971430001817,0,2752,0
2.3047962149998966,1584,1392,0
2.3079035850000764,2576,2048,0
2.311929387999953,1792,1664,0
2.3149232830000983,8962,1680,0
2.318816891000097,1392,2080,0
2.3218332730002658,208,2272,0
2.325668713000141,4897,16,0
2.3287381949999144,1248,1776,0
2.332669424999949,3696,1888,0
2.3357838420001826,4625,1472,0
2.33886981500018,0,752,0
2.3427163440001095,256,7041,0
2.3457931309999367,5697,1520,0
2.3495740960001967,720,6689,0
2.3526746330003334,2544,1248,0
2.3565733880000153,5377,8097,0
2.359552286000053,0,912,0
2.3635091320002175,768,1488,0
2.366747619000307,7313,2304,0
2.370473184000275,2032,1760,0
2.373697687999993,2736,1280,0
2.377734066999892,3296,1536,0
2.3805066879999686,1280,2304,0
2.384554673999901,3440,1088,0
2.3876906880000206,3792,1168,0
2.3916961630002334,5233,2784,0
2.3948379260000365,8706,1936,0
2.398774493000019,2000,2912,0
2.401633678000053,688,2064,0
2.4058007550002003,3920,6865,0
2.408815727000274,1120,1280,0
2.412786727999901,1792,4064,0
2.4158154990000185,5873,2224,0
2.4198100060002616,3904,2752,0
2.4228293730002406,176,608,0
2.4268330879999667,3744,4529,0
2.430048435000117,720,1600,0
2.4338223499999003,3888,8386,0
2.4369550840001466,1248,1472,0
2.4408269909999945,4305,3536,0
2.4446767340000406,1840,1488,0
2.4479957500002456,4865,2352,0
2.4517004200001793,3696,1792,0
2.454992315000254,8418,2416,0
2.458680152999932,1296,1792,0
2.4619705740001336,608,944,0
2.465711998000188,4577,1552,0
2.471969186000024,1264,2128,0
2.4731960819999586,5761,1296,0
2.475818848000017,8466,1840,0
2.479719937000027,304,1024,0
2.482846971000072,1744,2640,0
2.4867876319999596,8882,1568,0
2.490006563999941,1888,2224,0
2.4937572300000284,2528,768,0
2.4969757839999147,2720,912,0
2.499867297000037,0,2016,0
2.5036687010001515,624,5441,0
2.5067124950001016,5889,1520,0
2.5105993830002262,1536,5937,0
2.5136515770000187,4721,1072,0
2.5175487460001023,4433,1840,0
2.5215069230002882,1200,1280,0
2.5245723779999025,4769,3168,0
2.5275846350000393,0,880,0
2.531557138000153,6145,2560,0
2.5345360930000425,8338,6961,0
2.538564535000205,1664,6865,0
2.5416049430000385,272,2208,0
2.545592935000059,3840,1696,0
2.5485499100000197,768,816,0
2.5525360880001244,4113,2304,0
2.5555809279999266,5889,1328,0
2.5595501329999024,560,816,0
2.562569595000241,432,1024,0
2.5665610189998915,4513,1872,0
2.5695378400000664,464,1120,0
2.57354436300011,4097,1184,0
2.5765676599999097,3328,1648,0
2.5796377599999687,0,1296,0
2.5835712040002363,2016,4417,0
2.5875253910003266,5265,1760,0
2.59164557000031,4273,3328,0
2.594564078000076,4145,2112,0
2.597586130000309,2480,1744,0
2.601584903999992,544,1184,0
2.6049503070003084,4369,1584,0
2.608878060000279,1376,1536,0
2.611861785000201,5377,1424,0
2.615708754000025,6225,2240,0
2.618578919999891,816,1760,0
2.622520626000096,1312,624,0
2.6255808109999634,5937,1792,0
2.62953126299999,256,2480,0
2.6328118179999365,4417,2048,0
2.636778274000335,3648,1920,0
2.6398332010003287,736,848,0
2.6427664460002234,736,1840,0
2.6467866980001418,6545,2912,0
2.649764750000031,768,784,0
2.653728524000144,3056,6913,0
2.656885262000287,2448,2016,0
2.660662888999923,4177,3936,0
2.6648063729999194,2832,1440,0
2.6677457929999946,5681,2416,0
2.6716140900002756,3104,1056,0
2.6749812210000528,6385,2320,0
2.678944894000324,1200,1952,0
2.681820708000032,336,2480,0
2.6857829870000387,5713,1536,0
2.6889014530001987,1280,1184,0
2.692788798000038,3840,2016,0
2.695935058000032,5729,1056,0
2.699745501000052,64,848,0
2.702895388000343,2304,2048,0
2.706971127000088,6897,1328,0
2.7098646920003375,1312,1136,0
2.713760346000072,2144,2288,0
2.717090553000162,4209,2560,0
2.7207583150002392,0,2064,0
2.7240603150003153,4497,2528,0
2.7279392440000265,4000,1008,0
2.7308294399999795,3040,3312,0
2.734781299000133,5121,1808,0
2.7380645719999848,2400,1072,0
2.7409920600002806,0,1328,0
2.7448628229999485,8658,4161,0
2.7487869300002785,1456,2096,0
2.751823095999953,4337,2496,0
2.7559515779998947,8434,2720,0
2.7589335550001124,1456,2064,0
2.7628132410000035,992,1632,0
2.766049877000114,6289,3296,0
2.768932841000151,0,2288,0
2.7729916870002853,4016,5153,0
2.7760617270000694,4401,0,0
2.779835295000339,448,1168,0
2.783049108000341,1024,1808,0
2.7870103089999247,5617,1296,0
2.7899178759998904,1104,1472,0
2.7937949180000032,1968,768,0
2.7970224440000493,3600,2208,0
2.800970105000033,256,1392,0
2.803915730999961,1520,1424,0
2.8079154659999404,4449,0,0
2.8109371929999725,1760,2160,0
2.8149263790000987,4177,512,0
2.8180081470000005,4513,1360,0
2.821913617000064,128,1232,0
2.8250459240002783,8962,1328,0
2.8288336360001267,1328,1808,0
2.8320581610000772,3408,2320,0
2.835861861000012,6849,2240,0
2.8389115280001533,144,1440,0
2.8427674819999993,608,1856,0
2.8458652670001356,7473,1024,0
2.848957235999933,0,928,0
2.852825285000108,5489,2128,0
2.8559231770000224,4593,2464,0
2.859841865999897,656,1488,0
2.863074681999933,416,1456,0
2.866932972000086,4881,1648,0
2.8699404280000635,304,2096,0
2.874014220999925,1696,768,0
2.8771085769999445,3824,1392,0
2.8809165120001126,0,2032,0
2.883848620000208,3744,2400,0
2.887590978999924,4897,1712,0
2.8906246950000423,1408,1584,0
2.8945645100002366,4113,2192,0
2.897621466000146,2976,2416,0
2.9015913339999315,480,1776,0
2.9047938910002813,4353,1552,0
2.908792055000049,880,2048,0
2.9119120979999025,4865,2048,0
2.9158089010002186,5009,1872,0
2.918882278000183,0,800,0
2.921875984000053,0,1296,0
2.925861117000295,5441,1792,0
2.928794463000031,160,1648,0
2.9327491470003224,4209,976,0
2.935889008000231,4449,1824,0
2.9388782250002805,0,720,0
2.942725587000041,656,720,0
2.9457267550001234,7425,1584,0
2.949879336000322,576,1616,0
2.952867969000181,5201,1872,0
2.9569381920000524,4785,2560,0
2.960062547000234,464,1552,0
2.964078435999909,2384,944,0
2.967121923999912,5633,1648,0
2.9709566260003157,272,2160,0
2.974225535000187,3280,1824,0
2.9778636000000915,3632,1056,0
2.9808562190000885,416,1120,0
2.984791107000092,4113,1024,0
2.987897989999965,3616,2096,0
2.991809110000304,3536,3776,0
2.9948725270000978,8450,2528,0
2.9988227990002088,1520,1168,0
3.0018945890001305,0,1488,0
3.005813006000153,5857,1552,0
3.008947566000188,944,1024,0
3.0128050280000025,6193,2320,0
3.015979677999894,4657,1728,0
3.019867134999913,1280,912,0
3.0229084780003177,1696,1552,0
3.026842346000194,6225,1280,0
3.0299304459999803,1456,1456,0
3.033893786000135,2208,1040,0
3.03704047500014,1872,688,0
3.0408325100002003,720,1648,0
3.0438478700002634,112,1824,0
3.047994514000038,4721,1808,0
3.0509746249999807,4193,2048,0
3.054903582999941,5873,2048,0
3.0579947119999815,2288,2000,0
3.06191115799993,1024,1792,0
3.0649843520000104,3680,1712,0
3.0688703999999234,0,1024,0
3.072015839999949,5889,2448,0
3.076009174000319,7665,1216,0
3.0791102590001174,1280,1440,0
3.0829062820002946,1552,1680,0
3.0861284820002766,5841,1280,0
3.0901436930003,1632,1552,0
3.09312677600019,4097,1712,0
3.0969864620001317,5537,5889,0
3.100078654000299,0,688,0
3.1030011350003406,656,0,0
3.106993986999896,4273,2096,0
3.110146934000113,528,1824,0
3.113962159000039,3312,1792,0
3.117052337000132,2304,1296,0
3.120904969000094,48,2096,0
3.1239086450000286,3424,1776,0
3.1278466910002862,4689,1024,0
3.131025147999935,3920,1360,0
3.1348382060000404,6737,1472,0
3.1381468360000326,2208,1536,0
3.141826062000291,0,5569,0
3.1449961550001717,3264,1760,0
3.149023217999911,224,1664,0
3.151987493999968,5873,1264,0
3.1558695980002085,8626,1392,0
3.1589196750001065,544,1024,0
3.162070798000059,0,1488,0
3.165881238000111,10466,3936,0
3.1689740940000775,0,1920,0
3.17287915299994,6977,1584,0
3.1759841130001405,4417,1984,0
3.179854032000094,0,5137,0
3.1827424800003428,0,1328,0
3.186695120999957,6881,1360,0
3.189744608000183,2304,3360,0
3.193660081999951,3328,1264,0
3.1967243879998932,4529,2560,0
3.199843993000286,480,752,0
3.203857330000119,3168,2544,0
3.2079080490002525,4721,2320,0
3.210641578999912,2112,1904,0
3.2148859470003117,4545,1792,0
3.2178973820000465,3184,2608,0
3.2207139639999696,0,1392,0
3.224842120000176,3664,5217,0
3.22764442100015,768,1200,0
3.231878591000168,6833,4097,0
3.234716965000189,7521,2192,0
3.238667801000247,3296,2064,0
3.241828833999989,272,880,0
3.245686497999941,5425,6401,0
3.2488915670001006,0,1296,0
3.25275425000018,2304,256,0
3.255947876999926,6161,2560,0
3.2597178529999837,224,960,0
3.2628901940001924,2336,2704,0
3.267047473000275,4625,768,0
3.27004862900003,1104,1744,0
3.2738696880001044,2736,2864,0
3.2771510590000617,2144,1808,0
3.2812748480000664,1072,1280,0
3.2839909459999035,224,1424,0
3.288035121000121,5121,1504,0
3.291001036000125,1744,2096,0
3.2948852540002918,6993,1584,0
3.298151278000205,1344,1488,0
3.301802951999889,0,1360,0
3.3050093030001335,6097,1952,0
3.3090074270003242,768,1904,0
3.312134447000062,4321,1632,0
3.3160475330000736,6401,1792,0
3.3190975380002783,144,1104,0
3.322845310000048,1024,1264,0
3.3260855260000426,6433,80,0
3.328980220000176,0,1792,0
3.332923481000307,3616,2784,0
3.3359182419999343,6049,2704,0
3.33987118999994,0,736,0
3.342970463000256,2400,1904,0
3.3470420450003076,4865,1744,0
3.350116360999891,1632,1808,0
3.3538694110002325,2320,1152,0
3.3570654820000527,4769,2464,0
3.360046759999932,0,784,0
3.363861733000249,0,5377,0
3.3671432999999524,7953,1888,0
3.37103217899994,1728,1600,0
3.373996462999912,3360,2928,0
3.3780265240002336,3072,2112,0
3.3810322399999677,816,1728,0
3.3848219159999644,4337,1904,0
3.388201142000071,3664,1808,0
3.3919920260000254,6481,2304,0
3.395102073000089,8338,2016,0
3.3989595190000728,2048,5137,0
3.401930368000194,0,2080,0
3.405912864000129,5713,1312,0
3.4090625660001024,480,2096,0
3.4129663300000175,4545,1536,0
3.416166256999986,5361,2176,0
3.420026327999949,32,976,0
3.4230272830000104,1152,2864,0
3.427088383999944,7953,1776,0
3.430023814999913,1024,2048,0
3.434198250999998,1408,1456,0
3.4370798730001297,4513,2032,0
3.4402470600002744,0,752,0
3.44417622400033,0,3696,0
3.4471973350000553,5873,1280,0
3.4508559040000364,880,1104,0
3.454136046000258,3264,720,0
3.457879436999974,3328,1792,0
3.4609766650000893,1168,2064,0
3.46489456900008,3920,1232,0
3.4679577330002758,2576,320,0
3.47184300500021,5649,1856,0
3.474931561000176,9298,2000,0
3.478818345000036,1904,272,0
3.481808724000075,240,1584,0
3.4857037720003063,4465,528,0
3.488758830000279,1024,1504,0
3.4926561810002568,3872,1280,0
3.49580618400023,4865,1584,0
3.4998386970000865,288,1120,0
3.5026813990002665,2304,1696,0
3.50686716600012,5793,976,0
3.509729747000165,1264,1280,0
3.5138568910001595,1568,1568,0
3.5169276609999542,3072,1520,0
3.520865287000106,560,1024,0
3.5236899380001887,320,656,0
3.527922715999921,3584,2304,0
3.5308532920003017,2512,864,0
3.5346792559998903,3840,2352,0
3.537957772000027,2960,1760,0
3.5418220149999797,1104,1056,0
3.544899887000156,4785,2240,0
3.5489507940001204,272,3120,0
3.551931672000137,5889,2416,0
3.555931550999958,7473,2576,0
3.559004353000091,1504,928,0
3.5628354210002726,144,976,0
3.5659989139999198,7889,2048,0
3.5698718940002436,768,2016,0
3.573026466000101,4817,2576,0
3.5769632740002635,4353,944,0
3.5799025979999897,992,1008,0
3.5838557740003125,2848,1024,0
3.5871684749999986,7313,3072,0
3.5909219270001813,1280,1584,0
3.5939488770000025,4129,2464,0
3.5978756889999204,3936,2848,0
3.6009685660001196,768,1808,0
3.605043248000129,3872,1568,0
3.6081623929999296,3328,2112,0
3.6118991250000363,2464,2208,0
3.615150929000265,7601,1856,0
3.6188995249999607,848,2048,0
3.6219756999998935,304,1568,0
3.6260640049999893,5521,1280,0
3.6291066490002777,0,1296,0
3.6330398400000377,4048,1056,0
3.636141087999931,6913,3392,0
3.6392367570001625,816,768,0
3.6431100740001057,1184,5553,0
3.646185869999954,8033,864,0
3.64993167800003,1792,5169,0
3.653245963000245,2192,1024,0
3.657189459000165,6737,3840,0
3.6600941000001512,0,1760,0
3.663919294000152,304,768,0
3.667126269000164,6657,1520,0
3.671112964000258,1024,1792,0
3.6740652799999225,2480,528,0
3.678116811000109,2816,2096,0
3.680980116000228,224,1440,0
3.684931542999948,3328,1328,0
3.6882194919999165,2928,2160,0
3.6920032460002403,3104,1536,0
3.69499568800029,8177,1600,0
3.698889453999982,1552,1744,0
3.702147139000317,0,1520,0
3.70589823399996,6225,624,0
3.708945775000302,1024,1408,0
3.713024178000069,4064,1584,0
3.7161588300000403,6177,2304,0
3.71906868699989,0,928,0
3.7231274949999715,240,1392,0
3.726208809000127,6465,1952,0
3.7299278170003163,0,1264,0
3.73306801300032,6193,768,0
3.737089436000133,3424,1456,0
3.739965968999968,1504,1040,0
3.7438204840000253,592,1792,0
3.7470239829999628,6225,3792,0
3.7508575500000916,1072,1280,0
3.75395795500026,2816,1440,0
3.7578518919999624,3872,3344,0
3.760928201000297,0,992,0
3.7639941350003028,3920,1792,0
3.767900044000271,8274,2512,0
3.771830976000274,4321,1856,0
3.774945873999968,7489,3008,0
3.778755089000242,1264,1088,0
3.7817837830002645,1296,768,0
3.7857315139999628,10530,2112,0
3.78873437700031,576,1392,0
3.7928558130001875,3408,2032,0
3.795762847000333,3760,2320,0
3.7998314850001407,288,704,0
3.802916634000212,2368,1840,0
3.806897860999925,6625,768,0
3.8099084529999345,2464,2288,0
3.81383624099999,2032,944,0
3.8169117760003246,3520,4016,0
3.820834955999999,736,2048,0
3.8238073299999087,1984,2672,0
3.827737959999922,5537,768,0
3.8309803840002132,3632,3008,0
3.834810108000056,4913,1280,0
3.83785955500025,3232,1696,0
3.841034112000216,96,2000,0
3.8450273210000887,8450,3888,0
3.8488205920002656,1568,1792,0
3.852048995000132,4561,2544,0
3.8560907370001587,8466,1984,0
3.8589748980002696,1648,1856,0
3.8631179600001815,352,2192,0
3.8661794429999645,6833,2448,0
3.8701153470001373,256,1616,0
3.8732175489999463,3840,1328,0
3.877033312000094,4016,2992,0
3.88025183200034,1184,2320,0
3.883895575000224,464,800,0
3.887036322000313,8594,2448,0
3.891077826000128,1584,976,0
3.8942751419999695,3856,2160,0
3.8979863930003376,2816,1792,0
3.9009715820002384,992,1776,0
3.9049726960001863,5521,2464,0
3.908215342999938,2576,1648,0
3.912142980000226,2032,1120,0
3.915102930000103,8466,2096,0
3.9189702900002885,1056,1376,0
3.9222009160002926,688,1568,0
3.9259736120002344,5569,368,0
3.9291691450002872,352,2048,0
3.9329600179999034,4321,2096,0
3.9360680120003053,5377,2224,0
3.939274131000275,0,816,0
3.9429843010002514,0,7185,0
3.9461012360002314,6881,1328,0
3.95000447800021,912,1440,0
3.95306987999993,4097,2032,0
3.9570004199999858,4561,2048,0
3.9601795960002164,0,816,0
3.9632452149999153,16,1840,0
3.9671655440001814,4657,736,0
3.9700467100001333,0,1184,0
3.9739136030002555,2608,1328,0
3.9772512409999763,5425,3984,0
3.9810689750001984,656,1280,0
3.984039167999981,2464,3120,0
3.9880877900000087,4849,1520,0
3.9911865270000817,3664,1696,0
3.9949834660001216,5297,1520,0
3.9981883200002812,1680,1504,0
4.001922477000335,1312,1584,0
4.005022373999964,3600,1792,0
4.009085525000046,0,2816,0
4.012205312000333,4177,1376,0
4.015938521999942,7425,3328,0
4.019162219999998,1792,1536,0
4.022944025000015,1104,928,0
4.0260565829998995,5937,608,0
4.029210354000043,0,1296,0
4.032993248999901,8017,1824,0
4.036253906000184,5681,2288,0
4.040167936000216,608,3840,0
4.043061355000191,272,1264,0
4.0470016290000785,2544,2128,0
4.050091781999981,1520,1824,0
4.053969396999946,2688,7569,0
4.057090358000096,2928,3072,0
4.060995983000339,1696,3872,0
4.064042793000226,2400,688,0
4.067949621000025,8386,4257,0
4.071809122000104,5073,1952,0
4.074908033000156,9730,3504,0
4.078808690000187,1712,2016,0
4.081826368000293,2112,2416,0
4.085792714000036,6593,1024,0
4.089013257000261,560,960,0
4.092002256000342,1616,768,0
4.095946928000103,8274,3840,0
4.099065372000041,1584,752,0
4.103013414000088,4353,3120,0
4.106947335000314,6593,2128,0
4.109953879999921,3248,1808,0
4.113839653000014,1392,1088,0
4.116973704999964,4064,2064,0
4.120928167000329,96,1824,0
4.12385513900017,6193,2560,0
4.1270054260003235,3328,624,0
4.130932216000019,2960,2640,0
4.134972157999982,6401,1744,0
4.138130696000189,2096,1584,0
4.141120256000249,0,2656,0
4.145090619000257,2928,1296,0
4.1481679540002006,960,2624,0
4.152041967000059,5793,8450,0
4.155316447000132,9618,1552,0
4.1592167040003005,1456,4833,0
4.1621495700001105,0,1488,0
4.166168907000156,5905,432,0
4.169258705000175,256,1376,0
4.1731497959999615,3696,1792,0
4.176258734999919,4561,2048,0
4.180149459999939,768,864,0
4.183212931000071,0,1024,0
4.186500057000103,5681,1456,0
4.190054739000061,0,3936,0
4.193054400000165,4865,2336,0
4.197012281000298,3152,976,0
4.2000295460002235,64,1680,0
4.203146410000045,0,2016,0
4.207036038000297,1712,2912,0
4.210129994999988,112,1792,0
4.2139548860000104,4193,1632,0
4.217171064000013,2656,2480,0
4.221074977000171,0,624,0
4.224050199999965,2032,1728,0
4.227928054000131,4080,2304,0
4.231076313999893,928,1280,0
4.235009124000044,6209,1712,0
4.238170470000114,5201,2656,0
4.2419459890002145,816,1440,0
4.245052906000183,5745,2272,0
4.248942914000054,1008,1760,0
4.252025287999913,2320,1776,0
4.255960907999906,7521,2528,0
4.259089218000099,624,1312,0
4.262999499000216,256,1088,0
4.266118389999974,5617,1488,0
4.269127905999994,0,1792,0
4.273228481999922,7505,5217,0
4.276273975000095,4145,368,0
4.279975836000176,1120,3920,0
4.283271717999924,0,1280,0
4.28721565900014,4689,1280,0
4.290045951000138,16,1552,0
4.293982598000184,2576,1280,0
4.297139680000328,3904,2816,0
4.300218877000134,0,1792,0
4.3040254739999,3168,2432,0
4.307991743999992,3632,1552,0
4.311273346000235,2144,1488,0
4.3151878300000135,6705,2304,0
4.318150211000102,2208,1792,0
4.32132000799993,0,1584,0
4.325226982000004,8674,2816,0
4.328213440000127,992,1536,0
4.332255948000238,4209,4641,0
4.3361401340002885,6977,2160,0
4.33907310099994,2960,2016,0
4.342089458999908,0,1776,0
4.345984414000213,4817,1072,0
4.349088506000044,784,1680,0
4.353022563000195,5521,1488,0
4.356107389000044,3008,1456,0
4.3599903180002,288,7985,0
4.363091428000189,1200,1488,0
4.367045706000226,4433,8081,0
4.369979177000005,944,1504,0
4.373866490000182,3264,1792,0
4.376901734000057,2816,1024,0
4.380806802000279,160,4865,0
4.383814447000077,1808,2816,0
4.387843780999901,3600,5521,0
4.391067112000201,1552,1552,0
4.394986702000097,8994,2896,0
4.398957585000062,2160,2976,0
4.402083840000159,720,1312,0
4.405982458999915,3840,1520,0
4.409012544000234,2448,1648,0
4.412940275999972,6913,3072,0
4.4160093139998935,7169,3344,0
4.420047444999909,944,1056,0
4.423092925000219,1888,2016,0
4.426969207000184,7297,1088,0
4.430055926000023,976,816,0
4.43381208000028,4097,1024,0
4.437049020999893,4209,2336,0
4.44017071899998,0,1792,0
4.44396067200023,2192,8562,0
4.447259502000179,3616,2528,0
4.4511395210001865,3792,3664,0
4.455154032000337,6145,2896,0
4.45804916599991,2864,2160,0
4.462117761000172,128,1904,0
4.465274934000263,5681,2480,0
4.469097594000232,400,1824,0
4.472204336000232,7985,2912,0
4.475992227000006,7761,2416,0
4.479246747000161,1216,1952,0
4.482314196000061,320,720,0
4.486089254000035,8626,2608,0
4.489214376000291,0,944,0
4.493049274999976,6385,3328,0
4.496192014999906,4625,1904,0
4.500058642000113,624,1792,0
4.503276503000052,2144,1744,0
4.5072148399999605,4048,1712,0
4.510176082000271,1344,816,0
4.514007230000061,3104,464,0
4.517190608999954,2656,1392,0
4.520335738000085,0,560,0
4.524034918000325,2016,4016,0
4.528139289000137,3968,2816,0
4.531162850000328,3920,1984,0
4.535034318000271,3328,2272,0
4.538060070000029,3152,2544,0
4.541314781999972,0,1792,0
4.545120589999897,3568,4353,0
4.548414172000321,256,2304,0
4.5522130780000225,3552,6129,0
4.555237294000108,6545,1680,0
4.559123974000158,5633,4193,0
4.562264602000141,0,0,0
4.565181336000023,6321,720,0
4.569199074000153,4865,2304,0
4.573094325000056,4209,1712,0
4.576044856999943,6385,2304,0
4.580167134000021,1232,1296,0
4.58330758000011,2048,1552,0
4.587073027000315,4273,1024,0
4.5902355060002265,0,768,0
4.593225769000128,4289,1584,0
4.59715102600012,5073,4865,0
4.600390499000241,1184,2048,0
4.604107222000039,5505,3584,0
4.607232861000284,4977,928,0
4.611236325999926,4385,3040,0
4.614950911000051,4865,1888,0
4.6180519780000395,4016,2544,0
4.6213314740002716,0,1712,0
4.625250858000072,4257,1328,0
4.628365475999999,1616,1376,0
4.632262721000188,2032,4529,0
4.635180275000039,5889,1888,0
4.639110601000084,2096,1936,0
4.642107730000134,0,1504,0
4.6460114730002715,2320,1232,0
4.649138856000263,1120,768,0
4.652994187000331,4080,1792,0
4.656130472000314,6145,2544,0
4.660036368999954,288,1264,0
4.663086771000053,2864,768,0
4.666935178000131,5137,304,0
4.669991148999998,736,1760,0
4.673855687000014,2096,1536,0
4.676916006000283,4000,2096,0
4.680864316000225,528,2576,0
4.683872875999896,2048,1360,0
4.68802649700001,4529,1808,0
4.691125632999956,1568,1568,0
4.695195245999912,7217,1712,0
4.698346614000002,2544,2096,0
4.702160130000266,0,6481,0
4.705137140000261,6097,864,0
4.709127277000334,752,1984,0
4.7122334390001015,4161,2160,0
4.716179677000127,8706,2096,0
4.7192725990003055,1280,1632,0
4.722323355000299,0,1632,0
4.726235808000183,4849,5041,0
4.729115982000167,0,2208,0
4.733061292999992,3424,1632,0
4.736081523999928,6321,0,0
4.739130590000059,0,288,0
4.742116557999907,0,64,0
4.746208929000204,2352,2768,0
4.749305689000266,880,1360,0
4.7532376690001,4865,4353,0
4.756330617999993,3536,1680,0
4.760058141000172,0,4769,0
4.7632866560002185,944,1792,0
4.7671730550000575,6113,848,0
4.770354126000257,1568,3328,0
4.774078981999992,2800,1632,0
4.777313906000018,3088,2048,0
4.78036492199999,0,1104,0
4.784108805999949,4353,3024,0
4.788141170000017,3760,2160,0
4.791239425000185,2608,1792,0
4.795169373000135,6097,2352,0
4.798290951000126,2528,1392,0
4.803113964000204,480,992,0
4.805037421000179,7169,2544,0
4.808923798000251,1312,1184,0
4.812048096000126,3072,1952,0
4.815954705999957,7409,768,0
4.819036475000303,2560,1504,0
4.822913898000024,560,1792,0
4.826005202000033,5009,1584,0
4.829889717000242,688,1024,0
4.832916412000031,6385,3936,0
4.836894747000315,4433,2128,0
4.839887422000174,912,1392,0
4.843796893000217,2816,928,0
4.846814368000196,7665,2464,0
4.849839706000239,0,2144,0
4.853798452000319,3008,560,0
4.856822472000204,2480,1328,0
4.8607805169999665,0,1808,0
4.863806580000073,2768,1552,0
4.867792422000093,4273,1632,0
4.870788600000196,1136,1792,0
4.874789190000229,6673,2624,0
4.877831161999893,1744,800,0
4.881788753999899,560,832,0
4.884839063000072,5473,1680,0
4.888817995999943,1248,2208,0
4.891848513000241,3472,1328,0
4.895824003000143,7089,1888,0
4.898835839000185,896,1952,0
4.9028011049999805,1008,2928,0
4.905853965000006,6081,0,0
4.909831437000321,1120,1328,0
4.912858618999962,3936,1904,0
4.91681636300018,4577,2336,0
4.91983891100017,144,1440,0
4.9239126880002,2368,1344,0
4.926827827000125,7169,2480,0
4.931115150000096,1712,1024,0
4.933877299999949,3136,368,0
4.9378278760000285,2976,1504,0
4.94088317700016,1040,1072,0
4.945026798000072,2032,1904,0
4.948236383000221,2096,2704,0
4.951928077000048,1920,3760,0
4.955067615000189,5889,1024,0
4.95903259700026,2256,2480,0
4.962137048999921,0,1408,0
4.966058173999954,6145,3120,0
4.969131429000299,112,1776,0
4.973039035000056,6689,1904,0
4.976124274000085,5409,2048,0
4.980117355999937,752,1728,0
4.983045448000212,1632,1280,0
4.98699503700027,4689,1552,0
4.990107451000313,160,1984,0
4.994005560000005,2576,3040,0
4.9971561320003275,4177,1776,0
5.001062034999904,0,1360,0
5.004064821000156,1984,1904,0
5.008217757000239,4337,1376,0
5.01124068099989,1216,2048,0
5.015255287999935,5041,1808,0
5.018359408999913,3824,2656,0
5.022154565000164,1232,1232,0
5.025360850000197,4321,1744,0
5.029138297999907,1392,1488,0
5.032409524000286,4705,1456,0
5.0360814700002265,6737,2576,0
5.039340518000245,0,1696,0
5.0431171380000706,256,1120,0
5.046338494000338,5777,3120,0
5.05003662900026,528,1024,0
5.053240761000325,3760,1984,0
5.057086660000095,4945,2560,0
5.060290374000033,1024,1936,0
5.064054460000079,880,1424,0
5.067232511999919,5345,1440,0
5.070357727000101,0,1328,0
5.074128824000127,6961,3568,0
5.077240131000053,2000,784,0
5.081298528999923,160,4497,0
5.084291145999941,3376,1024,0
5.088344509000308,2752,5041,0
5.0912646690003385,3408,1408,0
5.095339918000263,6769,2736,0
5.099222645000282,2304,1024,0
5.102319407000323,1024,1776,0
5.106229578000239,6529,512,0
5.109345258000303,1776,2128,0
5.11309032600002,3504,880,0
5.116361016000155,5889,1792,0
5.120263021000028,256,1328,0
5.123166365000088,3120,3088,0
5.127106219000325,4961,1824,0
5.130399097000009,1104,1760,0
5.13406963000034,2608,1024,0
5.137202057000195,3072,1040,0
5.1411479759999565,768,1344,0
5.144240901000103,2176,768,0
5.148270357000001,5473,1392,0
5.151083864000157,2384,1280,0
5.155252780999945,5489,1584,0
5.158327542000279,2048,1792,0
5.162229109000236,1536,2560,0
5.165396813999905,4753,1328,0
5.169164830000227,0,1008,0
5.172167424000236,3888,1728,0
5.176278308000292,7649,4577,0
5.17931242800023,0,1024,0
5.182251464000274,0,1904,0
5.186295577000237,7681,736,0
5.1894020039999305,1616,1040,0
5.1930697269999655,5121,2192,0
5.196315635000246,5601,1536,0
5.200050754000131,1008,816,0
5.203190548000293,112,1760,0
5.207067306000226,4721,1744,0
5.210299391000262,1280,1456,0
5.21397945300032,2064,1296,0
5.2171319799999765,4097,1696,0
5.2209280699999,288,1056,0
5.223949782000091,1136,2592,0
5.227866195999923,3200,2432,0
5.230953607000174,1616,1568,0
5.234886366999945,9922,6401,0
5.23790305600005,48,2000,0
5.242159009000261,208,1392,0
5.245120932000191,3216,1712,0
5.249004511000294,80,224,0
5.252005884000027,6881,3296,0
5.256036202999894,8594,1664,0
5.259126320000178,0,1744,0
5.262135088999912,0,2096,0
5.266081235999991,3792,1456,0
5.269193954000002,256,864,0
5.273092257999906,4401,1776,0
5.2760942449999675,8274,2416,0
5.280149340000207,144,1552,0
5.283051892000003,1808,1024,0
5.287141041000268,2480,1872,0
5.290266556999995,2016,1152,0
5.294128634000117,1808,1648,0
5.297109340000134,5105,2896,0
5.3011036500001865,736,3296,0
5.304176126000129,3328,2704,0
5.3083133420000195,1232,608,0
5.311401015000229,3744,1120,0
5.315318493000177,4753,2048,0
5.31823991400006,2576,864,0
5.322315177000291,1760,1584,0
5.325346804000219,0,2096,0
5.329229233000206,1120,1312,0
5.332389221000085,6689,3040,0
5.3361797400002615,10898,1264,0
5.339348429999973,3072,0,0
5.342429409000033,256,1088,0
5.346207083000081,7937,3088,0
5.350103605000186,2224,1296,0
5.3534135469999455,6257,2272,0
5.3571413170002415,7665,2304,0
5.360394981999889,272,1296,0
5.364149818999977,2256,1280,0
5.367225810000036,14275,2064,0
5.37134339000022,12691,2896,0
5.374292147000233,800,2064,0
5.378343948000293,12803,1536,0
5.381426302999898,32343,208,0
5.38522582700034,18804,2192,0
5.38930616100015,37817,816,0
5.392196710000007,24485,2224,0
5.396278821000124,2592,3072,0
5.3992600270003095,2336,1216,0
5.403183977000026,5633,1168,0
5.406268065999939,6097,2864,0
5.410223526000209,8962,5169,0
5.4141021549999095,12579,1536,0
5.417282892999992,10050,1888,0
5.421271607000108,16868,624,0
5.424168019000263,3360,1984,0
5.428281297000012,12467,2544,0
5.431406174000131,14483,1904,0
5.435206434000065,26342,2720,0
5.439256747999934,1104,1024,0
5.442216539000128,1024,336,0
5.446068620999995,18084,1632,0
5.449377605000336,9554,2544,0
5.453220665000117,6145,0,0
5.456269466000322,10354,2400,0
5.459977729999991,5889,880,0
5.463415988000179,3328,2528,0
5.467127325000092,10242,2288,592
5.470529186000022,6913,1024,0
5.474248315000295,4064,3344,0
5.478199249000227,4161,1184,0
5.4812990979999086,2592,1936,0
5.485015096000097,1488,688,0
5.488088192000305,9714,3920,0
5.491998975000115,3248,1696,0
5.495125876000202,2768,704,0
5.499060081000152,14323,1280,0
5.502123569000105,256,1728,0
5.5060506100003295,22229,1632,0
5.509139378000327,14787,1936,0
5.513036297000326,1216,304,0
5.516117214000133,0,2016,0
5.519175902999905,224,336,0
5.52299221200019,7889,3728,0
5.526995642000202,22437,1040,0
5.530002518999936,8033,2304,0
5.5338949380002305,6945,2560,0
5.537055155999951,1104,1984,0
5.5409788720003235,3280,880,0
5.544086547000006,6289,1696,0
5.548148545999993,11442,1184,0
5.551112697999997,6033,2352,0
5.555134601000191,8914,3376,0
5.558203053999932,0,2336,0
5.562086271000226,9426,1280,0
5.565250558000116,12659,1024,0
5.569136831999913,11010,864,0
5.572073563000231,15651,3856,0
5.57594488299992,25510,6913,0
5.580164758000137,34088,416,0
5.583045547999973,36008,2576,0
5.587132422000195,56109,1888,0
5.590988495000147,16291,1584,0
5.594230308000078,15491,2096,0
5.598260211000252,65535,976,0
5.601249999000174,7345,2672,0
5.605363745999966,7681,1008,0
5.608450977000302,37561,3360,0
5.612178221000249,5153,5377,0
5.616177203000007,19508,2272,0
5.619280118000006,4385,2416,0
5.623155323999981,1072,2816,0
5.626413027000126,10354,2384,0
5.630110503000196,2112,2048,0
5.633193083000151,15283,3920,0
5.6371405140002935,65535,7169,0
5.641213807999975,26310,1296,0
5.644438208000338,9474,2048,0
5.6483483090000846,28262,4417,0
5.651337306000187,21989,2000,0
5.655427420000251,28470,4177,0
5.6591296149999835,65535,3088,0
5.662113757000043,0,864,0
5.665477849000126,1392,2016,0
5.66938325000001,7633,6945,0
5.673286210000242,41466,6641,0
5.67646691400023,11778,2128,0
5.680280033000145,16852,1280,0
5.683428718999949,6737,2160,0
5.687206277000314,2800,2160,0
5.690404051000314,31287,528,0
5.6942906700001,3072,5377,0
5.697381663000215,5073,1840,0
5.701402276999943,11442,8466,80
5.7053426850002324,16227,1952,0
5.708569751000141,3360,2000,0
5.712407046999942,10434,1024,2704
5.716251470000316,15891,8145,736
5.720212860000174,0,7265,4433
5.7233921710003415,9506,2144,0
5.727266641999904,18196,3152,4097
5.7313896539999405,13299,12611,1872
5.734271397000157,560,4545,0
5.7383743200002755,18724,5601,0
5.741493062000245,928,832,0
5.745364150000114,5921,8145,0
5.7484948609999265,30439,784,0
5.752263552999921,1424,3120,0
5.756312165000054,8450,2784,0
5.759401862000232,2976,3184,0
5.763240795999991,10210,2992,0
5.766422478000095,512,2080,0
5.770322482000211,688,4193,0
5.773701641000116,3056,7169,160
5.777289521000057,4129,3184,0
5.780503949999911,1600,1232,0
5.7844092770001225,10450,2352,2880
5.788202781000109,11298,3872,2112
5.792116425000131,7905,864,240
5.795230874000026,19860,1392,0
5.799095516000307,0,3616,0
5.80216818100007,5137,6337,0
5.806102543000179,496,848,3904
5.809224285000255,7201,8962,0
5.813067017000321,23509,3376,0
5.816951816000255,41194,1552,4145
5.820030735000273,8962,0,0
5.823975032999897,12771,17028,0
5.827942803000042,38985,1024,272
5.831187695000153,6097,12803,560
5.835261803000321,13779,6177,176
5.838244814000063,0,368,0
5.842237004000253,10066,7905,0
5.846180541000194,10210,848,0
5.8491114010003,720,3072,0
5.853206626999963,11538,2896,0
5.856253121999998,12034,2288,0
5.8602397530003145,2800,4048,672
5.863236464000238,1328,3680,0
5.8670959210003275,9218,1904,448
5.8701504710002155,0,3840,0
5.8741320260000975,7761,3984,2864
5.878193760000158,1568,1280,0
5.882162170999891,1904,496,6161
5.8851823400000285,4721,1520,11746
5.88942181900029,10546,10450,0
5.893287766999947,3680,24149,4561
5.897288733000096,2320,24341,26886
5.900524990000122,6417,5665,0
5.904256694000196,14451,3408,6241
5.908434189000218,27398,11874,1376
5.912414640999941,41114,12034,0
5.916103008999926,560,13363,0
5.919443481000144,44714,6337,4865
5.923248841000259,32311,1696,0
5.927204047000032,21093,0,2672
5.930540122999901,7537,1328,880
5.934263366000323,3232,3872,1792
5.938312726000277,6145,4753,0
5.941446116999941,1648,4257,0
5.945160581999971,0,2192,0
5.9484053660003156,3216,6641,0
5.952302696000061,64,4945,672
5.955227997000293,5841,1344,0
5.958667455000068,0,2688,0
5.962378960000024,3296,2512,0
5.966303571000026,12371,1360,0
5.9694452450003155,28711,4273,0
5.973355928000274,9362,2048,0
5.976465364999967,15603,1040,0
5.9803248329999406,23637,5169,0
5.984220880000066,10130,1280,0
5.987338370000089,4161,2848,0
5.991357956000229,9442,3440,0
5.995262168999943,12915,2128,4961
5.998436144000152,17300,1968,0
6.001320561000284,0,176,0
6.005422507000276,11698,7825,0
6.009368198000175,11778,6497,8690
6.0132570920000035,18692,1760,0
6.016316579999966,32519,2464,0
6.020351395000034,10738,5201,8786
6.024345934999928,19508,16644,0
6.028335377000076,35432,1776,6145
6.031331714000316,6257,1280,0
6.0354330400000435,6001,1744,304
6.038291023000056,624,3488,0
6.042413044000114,5201,1328,256
6.045463995000318,4625,816,0
6.049364560999948,0,2976,16
6.052345787999911,11090,944,0
6.056237102000068,17204,4977,0
6.059441412000069,48,1328,0
6.063414999000088,1248,7985,0
6.067285395999988,15923,1936,1632
6.070488536000084,256,1184,0
6.074392947999968,5377,5841,1200
6.078394134000064,9506,12707,7345
6.082129289000022,5153,1520,11218
6.086118858000191,15523,7073,3936
6.089198554000177,848,1024,0
6.0931172600003265,6561,2352,0
6.0961847660000785,6753,3552,0
6.099232551000114,0,480,0
6.103093338000235,0,9490,0
6.106241136000335,768,12771,2048
6.110089359000085,1712,20517,176
6.113994276000085,624,3472,0
6.117046668000057,7089,4801,0
6.120978978000039,1584,10146,0
6.124937134999982,33816,1776,0
6.128275437999946,6497,5153,1824
6.132063018000281,1792,3504,0
6.1351158430002215,13907,496,0
6.139255541000239,8962,4817,16
6.143215443999907,3328,3584,0
6.1462499080003,4032,1808,0
6.150166917000206,768,1520,0
6.153226361000179,14547,2144,0
6.157213845000115,7441,2416,0
6.160255842999959,0,1136,0
6.163174036000328,0,288,0
6.166145955000047,0,2288,0
6.170004247000179,4721,4689,0
6.174021571000139,10818,2288,2816
6.177026237000064,7681,1312,0
6.181240029000037,2512,7793,0
6.184150933000183,768,960,0
6.188135015000171,2896,3696,0
6.191181956000037,3856,11682,0
6.195142809000117,13619,6401,0
6.198334294000233,0,3792,0
6.202262852000331,7713,3488,304
6.206149282000297,29527,416,4016
6.209355157000118,8594,224,0
6.213251815000149,192,9618,0
6.216387811000004,2640,3648,0
6.220348522000222,3888,1088,0
6.223607191000156,3616,4016,192
6.227328429999943,9570,4833,0
6.2311027660002765,6225,2304,0
6.2342534320000595,2032,880,0
6.2381719170002725,1712,1024,0
6.241289933000189,112,4481,0
6.245379679000052,4961,688,1648
6.248290630000156,5121,1792,0
6.252368205000039,0,432,1296
6.256213029000264,6817,3328,5825
6.259234269999979,768,2816,0
6.263343065000299,352,6657,3248
6.267172630999994,6753,3840,10018
6.270302427999923,1776,1440,0
6.274358942000163,768,1344,4801
6.278375228000186,13043,4209,4353
6.281507384000179,11042,6145,0
6.285399214000336,17428,432,0
6.289381192000292,16307,4577,11538
6.292500967000251,64,800,1792
6.296322219000103,13443,5377,0
6.299522813000294,6833,5201,0
6.303296822999982,9058,7441,0
6.3072963110003,14867,880,0
6.310447907000253,416,768,0
6.31430149300013,10290,2320,0
6.317319193000003,6433,10098,0
6.321219612000277,3376,3024,0
6.325288876000286,4897,13299,4337
6.32842392800012,0,1440,0
6.331499456000074,16131,0,768
6.335414188999948,19716,5025,0
6.339380105000146,11810,1840,0
6.34246589400027,5121,4353,0
6.346334037999895,27302,13571,0
6.349532005000128,2400,1808,0
6.353441248000308,7649,5681,0
6.3572232920000715,3072,2224,608
6.360345257000063,0,2304,0
6.363481439000225,0,4401,0
6.367252229000314,11250,352,0
6.370372645000316,560,12691,0
6.374450879000051,12066,816,1552
6.378137503000289,6401,1376,0
6.381227047000266,1760,4145,0
6.385147012000289,16115,880,0
6.3882694389999415,2560,464,0
6.392170172000078,10946,256,4401
6.396021543000188,12162,2976,0
6.399411552999936,1952,1440,0
6.4030944490000365,0,1552,8370
6.406075929000053,9970,656,0
6.410013583999898,1568,1520,0
6.413092176000191,11170,5425,848
6.4169868920002955,3600,4080,0
6.42003119400033,0,5793,1536
6.424347577999924,3904,2144,12050
6.4282761029999165,6113,7697,0
6.432169723000243,10770,7633,0
6.435214275999897,9682,1760,0
6.438207763000264,96,1184,0
6.442243160000089,0,4113,0
6.445312894999915,1792,4881,0
6.449032885000179,256,2832,0
6.452308281000114,12371,2608,0
6.456200853000155,976,8530,1280
6.460246455000288,15443,5121,0
6.463236626000253,2816,1360,0
6.467229798000062,2192,1264,0
6.470343703000253,6913,1216,0
6.4733026490002885,0,0,0
6.477114391000214,3152,4289,0
6.480383322000307,21077,5969,0
6.484161406000112,0,4673,0
6.488394370000151,16371,2208,4369
6.49148305000017,3184,13635,0
6.49541626700011,10066,560,0
6.498571141999946,672,1488,1792
6.502464885000336,5137,3328,4817
6.506273121000049,1200,0,1568
6.509534704000089,7169,3072,0
6.513404614000137,0,8017,8306
6.516564473000017,5361,1280,0
6.520372926000164,5281,5537,0
6.523607129000084,1440,3072,0
6.527385314000185,22277,7329,2512
6.531317026000124,9986,8434,0
6.534433699000147,9074,6753,0
6.53851187500004,3328,6401,0
6.541604491000271,3760,2448,0
6.545483924000109,1984,1792,0
6.548594458000025,736,4353,0
6.552559470000233,7057,4657,1360
6.556542313000136,14051,11090,1280
6.560447591999946,4449,19476,2048
6.564348762999998,16852,18708,0
6.568278663000001,26742,1792,4929
6.5713864670001385,848,6641,0
6.575511008999911,13651,1824,1568
6.579402020000089,560,16115,0
6.582361609000145,0,976,0
6.585530714000015,1248,768,0
6.588608806000138,0,2528,0
6.592413519000274,8177,2064,2368
6.596368571000312,15411,6401,0
6.599474955000005,112,800,544
6.603581373999987,7265,5985,0
6.607236217000263,11058,720,2272
6.610480184000153,1648,688,0
6.61453771000015,14131,2864,1120
6.618461256000046,8306,1024,0
6.621538278000116,7377,1056,0
6.625448296000286,24149,7025,0
6.6285915000003115,5041,6577,0
6.632519675999902,14675,7953,0
6.636441404999914,13315,5377,0
6.639565135000339,256,8338,8978
6.643435867000335,10930,3328,9474
6.647273261000009,1856,7169,0
6.650380270999904,16307,336,0
6.654475299000296,7825,10898,0
6.6573718360000385,0,848,0
6.661386521000168,5249,672,0
6.664367141000184,3792,2160,0
6.668471186000261,16740,2320,0
6.671294585999931,0,3792,0
6.674352647999967,768,5857,0
6.678263061000052,1248,4577,0
6.681366387000253,3296,2128,0
6.685298571000203,2768,1888,256
6.689235540000027,1120,480,224
6.692325200000141,12595,2704,0
6.696269835000294,10498,4865,0
6.6995291540001745,2512,464,0
6.70318085100007,1712,9394,0
6.707038388000001,6945,1072,96
6.710139156999958,3600,2896,0
6.714048237000043,32,6145,0
6.7171898490000785,3728,5937,0
6.721352888000183,5393,3536,0
6.724368592000246,7937,11826,0
6.728343611000128,11954,4305,6833
6.732254153000213,12226,1072,0
6.735214265000195,1456,10962,0
6.73932452300005,0,36104,880
6.742325488000006,2816,1792,0
6.746100258000297,10146,2048,0
6.750263571000232,4977,1280,0
6.753394104000108,0,2064,0
6.756391851999979,0,3840,0
6.760442142000102,336,784,0
6.763558344000103,1280,1808,0
6.7672456350001085,2992,2288,0
6.770479291999891,1696,2128,0
6.774341093000203,672,864,1776
6.777365021000151,7841,3824,0
6.781381818000227,0,3232,2896
6.784582507000323,3696,2896,0
6.788528464000137,6897,1712,0
6.792485475999911,6337,6913,2528
6.795582566000121,3104,8049,0
6.799311539999962,0,6113,1904
6.802469157999894,0,4897,0
6.806199813000148,10802,416,0
6.8093378739999935,6225,3248,0
6.813446832999944,11138,8674,0
6.816569196000273,13315,5617,0
6.820525395000004,4193,14419,0
6.824429378000332,12323,1936,0
6.828236459999971,12883,6193,1904
6.831291859999965,8962,9394,0
6.835456780000186,17412,5281,80
6.838543879000099,0,10546,2160
6.842483464999987,4945,8722,0
6.845546753000235,3920,2592,0
6.84929219300011,2144,4945,0
6.852584961000048,9010,3216,0
6.856514600000082,9938,2096,0
6.860302285000216,9202,5937,0
6.863568902000225,3520,1632,0
6.867252834000283,12323,1744,0
6.870463173000189,14867,4769,0
6.874536908000209,16,1280,3920
6.877430652999919,5841,912,0
6.88143258700029,8658,3232,1504
6.885298580999915,976,2048,0
6.888506727000276,12659,7937,0
6.892479863000062,0,32,1392
6.895464103999984,7969,2080,0
6.898500472000251,0,9506,0
6.902567249000185,3504,4513,2864
6.905611899000178,0,768,0
6.909537086,9586,6273,0
6.9133245810003245,9954,6193,0
6.916455103000317,6177,3344,0
6.920428152000113,512,1440,0
6.923630844999934,1504,2848,2208
6.927360716000294,13859,512,3024
6.931353996000325,1280,8498,0
6.9345962209999925,3232,2512,4000
6.93855862700002,2016,9138,0
6.942407003999961,22693,8514,6465
6.945466845000283,288,3872,0
6.949419736999971,6401,2592,112
6.9535154899999725,5297,1648,2592
6.956628659000216,1760,1024,0
6.960376130999975,0,7521,0
6.963662359999944,416,12547,4193
6.967349092999939,16708,14803,0
6.971273018999909,15107,1824,0
6.975209962000008,11010,2160,272
6.978354960000161,2464,1872,400
6.982274627000152,7473,9234,0
6.985344173000158,10770,608,0
6.98922480300007,1440,4449,0
6.992367217000265,4561,256,672
6.996323615000165,7153,2800,2080
7.0001613130002625,20533,1616,0
7.003150243000164,4080,2656,0
7.00715875700007,30439,12563,2112
7.011099174000265,20725,15619,9698
7.015242715000113,3840,9218,0
7.018409354000141,384,4113,0
7.022321900999941,4657,5537,0
7.025387525000042,3024,4016,0
7.029376021000189,5153,13571,2832
7.033138622000024,23157,944,0
7.036430858000131,7969,2656,0
7.040419062000183,14579,5377,6657
7.043318405000264,0,608,0
7.0472160640001675,7425,2416,0
7.0513362330002565,848,1328,1984
7.054333682000106,6753,768,656
7.058363073000237,5377,1792,0
7.061366379999981,0,4353,0
7.065201867000269,3152,2656,0
7.068481689000237,2336,1488,0
7.0723894689999725,3328,3536,0
7.075494973000332,2656,3088,0
7.079323147000196,0,2112,0
7.082356505000007,1280,5409,0
7.085670154000127,32,2128,0
7.089407541000128,2960,3072,0
7.093506219000119,1456,4513,0
7.096601322999959,18196,8962,0
7.100297947999934,928,1872,0
7.103461663999951,15651,2480,0
7.107308740999997,13459,4657,0
7.111540017000152,19684,2288,2208
7.115334126000107,6161,7169,5201
7.118567211000027,4945,3584,0
7.122564157999932,7025,10418,1952
7.126458032000301,7617,9170,0
7.129473813000004,4449,4417,2496
7.1334084860000075,12034,20020,9682
7.137276681000003,10242,160,0
7.140517529000135,176,1376,0
7.144391890999941,1376,2048,0
7.147395918000257,4097,496,0
7.151457558999937,0,2992,0
7.154597198999909,3840,3664,0
7.15847070000018,3968,1552,0
7.161602203000257,768,1552,0
7.165328958999908,3008,3472,0
7.168622525000046,12210,1776,0
7.172522197000035,1840,7505,0
7.17562805200032,7329,1872,0
7.1794739860001755,0,8498,0
7.182394595000005,6705,7473,0
7.18627054100034,11362,1888,0
7.1895867110001745,2576,3104,0
7.193392793999919,256,4625,8610
7.197248720000061,10434,5297,0
7.20035484500022,2560,480,0
7.2034130480001295,96,2832,0
7.207277990999955,26022,11522,0
7.211295969000275,5841,7313,720
7.214398319000338,7521,3168,0
7.218340520000311,21605,2240,432
7.2222556100000475,18132,864,1376
7.225424781000129,3328,5889,0
7.229218515999946,2736,3840,0
7.233192113000314,23077,1024,0
7.236218790000294,1936,2304,5665
7.240168911000183,4897,10770,944
7.244109903000208,848,1184,0
7.2470872560002135,3280,2320,0
7.25107570199998,176,4561,0
7.254138068999964,2944,1488,368
7.258119512000121,2048,1184,0
7.261128696000014,0,1392,0
7.265080062999914,1120,272,0
7.268071259999942,4209,1024,0
7.272054988000036,11778,1792,992
7.276032752999981,10242,288,784
7.279081998000038,144,2336,0
7.283448007000061,3424,4465,0
7.2872361400000045,14579,11154,7329
7.290378503000284,992,3120,1312
7.294450737000261,3440,1056,0
7.297283338999932,19604,2144,0
7.301423006000277,1200,12082,0
7.3053780640002515,10610,4321,4833
7.309250841999983,13347,4705,768
7.313293303000137,2048,10418,7249
7.316332967000108,7345,800,2416
7.320271159000185,0,7569,0
7.323279188000015,7201,3856,0
7.327248534000319,2272,3936,0
7.33039368000027,4865,2384,0
7.334569482000006,15843,9730,0
7.3373914480002895,1968,4385,0
7.341579996000291,7089,3984,0
7.344561133000298,1792,6961,0
7.3484893059999195,12723,4209,576
7.3514816320002865,0,48,0
7.35559017200012,13091,2752,0
7.358498451000287,0,800,0
7.3615511470002275,0,1520,0
7.365415140000096,10274,2816,0
7.369489439000063,2224,2096,0
7.372576038000261,5889,8978,0
7.376546340999994,7665,1056,5361
7.379638585000066,1104,3328,0
7.383417849000125,2016,3584,3296
7.3873803659998885,5457,1136,3232
7.391574254000261,1024,8722,2096
7.394567143000131,10466,5121,0
7.398494798000229,15107,4337,0
7.402543516000151,3328,2736,0
7.4056324060002225,12755,4801,0
7.4094484890001695,8882,4673,0
7.413578562000112,9218,6641,4145
7.4165998110001965,29239,3728,0
7.4204840800002785,16660,1312,416
7.423628872000336,832,6225,0
7.427475607999895,33640,27382,0
7.4313632120001785,6145,560,0
7.43462837800007,5313,1712,0
7.438574834000065,10770,1488,0
7.4416591770000196,1344,1840,0
7.4456060340003205,2352,3248,0
7.448527758000182,5377,1072,0
7.452580408999893,6145,4961,0
7.4556964910002534,7425,768,0
7.459503736999977,0,3408,0
7.462639620000118,0,992,4225
7.466405350000059,6193,1280,3872
7.469652167000277,9762,752,0
7.473615475000315,0,8610,0
7.477361574000042,10098,3344,6097
7.480535222000071,1712,7937,3536
7.484552091000296,11010,464,0
7.487544092999997,0,2144,2304
7.491544476999934,0,5569,0
7.494676843999969,18900,4097,0
7.498463280000124,2896,3232,0
7.501526007999928,1936,5553,0
7.505425911000202,784,3680,0
7.508686856000168,2960,2816,0
7.512602838000021,9970,4737,0
7.515534974000275,3168,2352,0
7.519611259000158,3632,5057,0
7.52267833499991,3888,2400,0
7.526510142999996,19924,2480,0
7.530401003999941,1824,8530,992
7.533423118999963,11010,3072,0
7.537346876999891,5681,2832,0
7.540454491000219,0,5009,0
7.544350487999964,2896,8306,0
7.547454032000132,13907,2000,0
7.55141704000016,2768,5233,3328
7.555336543000067,10258,1520,0
7.558394405999934,3920,288,0
7.56219536000026,0,1056,0
7.565276477000225,2048,2672,0
7.569144509000125,272,2256,0
7.572200890000204,10674,1312,0
7.576453623999896,8626,2512,0
7.579467051999927,6401,880,0
7.583335908000208,8962,1664,0
7.58646356700001,0,5601,0
7.5894308850001835,0,944,0
7.593439675999889,400,1120,1920
7.596402163000221,12403,3280,0
7.60031187300001,6833,7649,0
7.60341098500021,0,3632,432
7.6072065359999215,2608,7697,0
7.611213836999923,1520,9890,0
7.614379768000163,1200,8978,2960
7.618508249000115,9122,27830,8658
7.622346918999938,24197,1248,0
7.625364508000075,592,2304,0
7.629367189000277,2016,5889,0
7.632383941000171,8466,5537,0
7.636505992999901,3072,5585,0
7.639604827000312,1280,1168,0
7.643481599000097,8706,2848,0
7.647332985000048,1696,3328,0
7.650543053000092,14371,1808,3488
7.654519945000175,1760,6417,0
7.658562241000254,3664,1312,1952
7.661549642999944,80,768,0
7.665412594999907,2656,7185,0
7.668717011999888,10386,1696,3104
7.672648146000029,13075,5361,0
7.6765506440001445,6513,1280,0
7.68048262100001,4353,1600,0
7.683369956000206,5889,11522,496
7.687172378000014,6241,784,768
7.690191429000151,80,4257,1168
7.694176270000298,2496,1904,4465
7.6981702630000655,18084,1136,0
7.701209380999899,6305,7089,0
7.7051744740001595,20741,4865,0
7.708210292000331,0,256,0
7.711195167999904,2864,3040,0
7.71522244300013,10482,18036,0
7.71919823799999,5617,608,6593
7.722152925000046,512,4433,0
7.72613054500016,1264,1280,0
7.729193962999943,432,2912,0
7.7332084330000725,4016,400,0
7.736226386999988,928,3952,0
7.740219998000157,2528,4401,0
7.743206733000079,8033,4897,0
7.747211183000218,1232,10098,0
7.750235582000187,9394,992,0
7.754185919000065,2656,5937,0
7.757238015999974,1136,2304,0
7.761215685000025,6321,4305,0
7.765150692000134,7201,1328,0
7.768222817000151,1888,5121,0
7.772130845999982,10386,4177,0
7.775914422999904,2784,3024,0
7.778461833000165,0,192,0
7.782456322000144,0,5905,0
7.785443860000214,0,3808,3072
7.789459426000121,3376,4817,0
7.792424249000305,7377,256,0
7.796111090000068,14835,928,0
7.799201091000214,0,1616,0
7.803423893999934,0,2672,4657
7.8064259190000485,15155,4257,4977
7.810442748000241,12787,6177,1392
7.814346658999966,256,816,0
7.817216869000276,1296,3840,0
7.821224767000331,2816,32,0
7.8243744700002935,640,1648,0
7.827229141000316,560,0,0
7.8311961469999005,2848,3376,0
7.834235583000009,6353,1232,0
7.838210882000112,6113,16,0
7.841224670999964,0,6401,0
7.8442596879999655,2128,1696,0
7.84821495999995,5201,8145,0
7.8521624790000715,1648,5585,0
7.855498665000141,7697,1584,0
7.858532773000206,0,1680,0
7.862342596999952,0,2256,256
7.865373916999943,3344,2272,0
7.86950810899998,2544,1104,3872
7.873330823000288,8049,1088,0
7.876307644000008,4113,2048,0
7.880393913000262,960,528,0
7.8834365500001695,1088,4865,0
7.886483984000279,256,560,0
7.890549812000245,2144,4113,1712
7.894612788999893,4064,624,0
7.897552379999979,13075,1472,0
7.90149445499992,30199,752,0
7.905448485000306,5601,1392,2000
7.908430124999995,0,1024,0
7.912453406000168,23301,1232,4145
7.9164031800000885,432,5921,1248
7.919701340000302,816,4689,2112
7.923358175999965,10658,144,0
7.927377980000074,14803,3824,4257
7.931423489000281,21253,4865,7985
7.934688072999961,3840,4657,0
7.938618688000133,5409,1584,0
7.941697940000267,2304,4193,0
7.9454587290001655,1136,7825,0
7.948560353000175,2080,672,0
7.952544980000312,3408,1328,1120
7.956552134000049,13219,3072,0
7.959407318000103,8161,5201,0
7.962704962000316,0,992,0
7.966569490999973,14595,3040,48
7.970447733000128,5793,4913,192
7.973605597000187,416,1056,0
7.977510996000092,9522,4433,1024
7.980645900000127,7329,1328,0
7.984714644000178,2896,13043,656
7.988536164999914,11954,7169,0
7.99256324199996,10338,3744,0
7.995687357999941,21349,5425,0
7.999487286000203,7137,4129,1792
8.0034967900001,17940,12339,5857
8.007454991000031,24325,14483,0
8.010563114999968,3552,6241,0
8.014492055000119,14867,6977,1792
8.018391347000033,4353,2576,8306
8.02171381700009,5169,2304,0
8.02552200900027,25558,8930,0
8.029379706000327,4673,6145,3616
8.032679211999948,5649,1136,0
8.036432857999898,19172,7361,0
8.039632723000068,7201,1344,0
8.043651739000325,4513,3632,19156
8.047416587000043,20949,19668,0
8.051548230000208,2112,6817,0
8.054733772999953,25862,1744,0
8.058654189000208,3696,2480,0
8.062487392000094,29703,9986,7169
8.066406969000127,12515,16227,1456
8.069751438999901,12210,3696,432
8.073555784000291,3152,9730,0
8.077435108999907,8914,2848,256
8.080569736000143,12819,11458,0
8.084585193000294,8562,1712,1168
8.088640749000206,3328,9842,0
8.091743049000343,432,1280,5649
8.095485478000228,16259,4593,0
8.098651988000256,3760,992,0
8.102693543999976,3248,3808,0
8.106398119000005,2048,15939,4032
8.109539895000125,13907,7425,0
8.1134891720003,10946,2816,5121
8.117491835000237,1200,7105,27686
8.12148205199992,21109,6113,5585
8.12536709699998,0,1840,1024
8.128492593999908,10498,10578,0
8.132492348000142,15955,12018,5745
8.136299083000267,21541,3216,4769
8.140255999000146,12499,4080,0
8.14422261100026,17268,1104,5009
8.147268593000263,32199,8274,0
8.151521357000092,3568,1024,2048
8.155458599000212,18004,7425,0
8.159514432999913,27158,7809,1344
8.162497483000152,5377,5169,0
8.166257676999976,560,1072,0
8.170244906000335,1888,3472,11010
8.173480746000223,4785,16948,0
8.177206579000085,3088,7409,0
8.180414230000224,256,3104,0
8.184410115999981,13203,5889,6977
8.18847421999999,4273,1680,0
8.191527490000226,3744,2192,0
8.195271982000122,16868,1280,6641
8.19928750500003,15443,1808,2816
8.203372011000283,1952,480,1296
8.20661325600031,26998,4353,2288
8.210462764000113,2880,4337,0
8.214485434999915,7777,1792,816
8.217557480000323,176,7377,0
8.221481975000188,5889,4032,0
8.224470824000036,4241,2336,0
8.228703958000096,11794,11010,768
8.23244153700034,17012,12803,0
8.235557358000278,1488,11890,0
8.239640540999972,7521,6193,32
8.242705148999903,0,4721,0
8.24665779299994,8354,4353,1264
8.250404130000334,8017,1104,0
8.253491974000099,528,1712,0
8.25665761900018,0,2416,0
8.260514018000322,0,7457,1632
8.2635404749999,0,6161,0
8.267422619000172,3744,5425,384
8.270614729000044,8017,4897,0
8.274546651000037,1104,5009,0
8.278593395999906,9490,1200,0
8.28159858500021,2560,6513,0
8.2855033310002,4849,2304,0
8.288674839000123,0,7185,0
8.291657211000256,11298,6097,0
8.295763353999973,10146,13315,0
8.299482514999909,17316,4353,0
8.302767944000152,1488,1536,0
8.306704467000145,29943,2256,0
8.310519189999923,9218,2464,0
8.31361416000027,4193,8674,0
8.31754447100002,6193,5009,5217
8.321495823000078,15155,8530,4353
8.325600851000218,6609,7153,1280
8.328710995000165,11282,3664,0
8.33253972700004,13827,5041,5105
8.336671078000109,26886,4945,5105
8.34046031600019,1280,11986,0
8.343668290000096,9810,976,5121
8.34755754600019,5409,992,0
8.350613889000215,9170,4769,0
8.354361814000185,48,5377,0
8.357601618999979,13347,2240,0
8.361593564000032,65535,12291,4097
8.365485670999988,4753,1536,0
8.368535923000309,0,6913,0
8.372459939000237,3808,1360,0
8.375594058999923,4657,3504,0
8.37877374100026,0,1248,0
8.382634248000159,16948,1120,0
8.386613339000178,2880,1280,0
8.389574524000182,1456,4497,0
8.393639392000296,13171,704,0
8.396734651000315,6193,7761,0
8.400434952000069,8610,3552,0
8.403551999000229,19300,1456,0
8.407406570000148,1728,992,0
8.410518439000043,1488,3824,0
8.41443968600015,4097,4273,0
8.417559968000205,43274,3424,0
8.421448564999992,768,4769,0
8.424397978000343,9842,4000,0
8.428341510000337,1792,7057,0
8.432243563000156,29591,3616,0
8.43529154900034,8690,1488,0
8.439263672999914,37369,1456,64
8.442564486000265,6401,5841,0
8.446556257000339,18692,1120,2384
8.450546551000116,16724,624,2800
8.454270286000337,28438,2816,0
8.457353177000186,42554,1808,0
8.461545348000072,28935,832,0
8.46451278700033,3696,2288,0
8.468552439000177,35704,1424,0
8.472521273999973,28438,2880,0
8.475513812999907,23093,1664,0
8.479536261000248,6897,1024,0
8.482392177000293,20757,3248,0
8.486545778000163,1712,10002,2528
8.490417046999937,11218,2400,0
8.494543050000175,5121,1952,2176
8.497462182000163,3728,1984,0
8.501554039999974,1024,1424,0
8.504776153999956,3488,3088,0
8.508680004000325,4145,336,0
8.511799145000168,10866,4080,0
8.515672204000111,16179,2048,256
8.518783393999911,0,1008,0
8.522700929000166,20981,4881,0
8.526498515000185,27398,1024,0
8.529747481999948,16948,1968,0
8.533597205000206,18612,272,0
8.536804412000038,11634,1216,0
8.540572920000159,0,4145,0
8.54368340100018,2096,2480,0
8.547579939000116,21733,3568,0
8.55165295400002,32727,3232,0
8.554717393999908,17044,3344,0
8.557820070000162,16,1312,0
8.561756001000049,12291,3312,0
8.565529744000287,192,2304,0
8.568759879000027,1904,3600,0
8.572688909000135,6609,1584,0
8.575734197000202,9890,1360,0
8.579513556000165,5281,1040,0
8.582582705000277,1728,1920,0
8.586673713999971,4705,2528,0
8.589676133000012,1952,1088,0
8.593771219000246,4097,1104,192
8.59750000000031,4161,3760,0
8.600589331000265,304,1360,0
8.604640750000272,5617,1200,0
8.607723950000036,2864,2640,0
8.611521363000065,160,1808,0
8.614650662000258,6417,5681,0
8.618677881000167,6497,2448,0
8.62161769100021,960,1328,0
8.625673430000006,22565,5777,0
8.628739282999959,11522,864,0
8.632522726999923,18404,1232,0
8.635750963000191,0,5297,0
8.63952695800026,288,1488,0
8.642750104000243,4305,2560,0
8.646577807000085,13491,2064,0
8.649499989000105,0,1872,0
8.653455167000175,9218,2064,0
8.656642400000237,2640,5073,0
8.660589229999914,34552,1008,0
8.663724473000002,14259,2080,0
8.66759957000022,23781,2304,0
8.670885795000231,5889,1792,0
8.67461277800021,3040,4161,0
8.678651210000226,4273,1936,0
8.681640241999958,1280,2864,0
8.685645919000308,512,1184,0
8.688744176,4465,2448,0
8.692428232000111,9442,2096,0
8.695549381000092,17364,2048,0
8.699453602000176,2208,1280,0
8.702517610000086,0,1280,0
8.705579046999901,304,1504,0
8.709512521000306,4273,2816,0
8.713440506000097,11090,2144,0
8.716515948000051,6193,3840,0
8.719463348000318,0,1568,0
8.723350156999913,5313,4032,0
8.727276415000233,1120,4401,0
8.730325750000247,10674,2928,0
8.734273324000242,48,2544,0
8.737308037000275,3104,3072,0
8.741596933999972,1072,1504,0
8.744564572999934,5297,1744,0
8.7484864930002,11874,2112,0
8.751609483000266,3856,1808,0
8.755582541999956,14915,4465,0
8.758634272000108,4561,1136,0
8.762594338000326,1936,4289,0
8.766564258000017,6497,1280,0
8.769584792999922,13571,1952,0
8.773579470000186,4225,1200,0
8.776296204000118,1024,2816,0
8.780472680000003,3568,1392,0
8.783645197000169,2304,1632,0
8.7875418120002,3248,2736,0
8.790488306000043,864,2464,0
8.794612474000132,64,2656,0
8.79755034200025,768,2992,0
8.801684893000129,4849,1808,0
8.804752578000262,3744,976,0
8.80864390800025,8466,2080,0
8.811779572999967,752,3424,0
8.814784701000008,4913,672,0
8.818769912000334,4577,3072,0
8.821655233000001,0,1072,0
8.825699931000145,3184,608,0
8.828689239000141,4705,1056,0
8.832549664999988,1040,1808,0
8.835823455000082,6577,1440,0
8.839741580000009,2576,2816,0
8.842765589999999,0,464,0
8.846520664000309,4016,2128,0
8.849730271000226,1840,992,0
8.853499956000178,8274,1376,0
8.856673215000228,10514,2816,0
8.860603359999914,3472,1072,0
8.863747298999897,11058,1760,0
8.867780321000282,26854,4593,0
8.871666365000237,2192,2064,0
8.874777032000111,8017,2720,0
8.878696356000091,7937,1888,0
8.881634772000325,416,1680,0
8.885686161000194,5969,2032,0
8.88868968800034,15107,2816,0
8.892706619999899,2048,2416,0
8.89578680700015,4529,1968,0
8.899430342999949,0,1200,0
8.902795285000138,5377,1888,0
8.90669336200017,7409,1792,0
8.909799565999947,4016,1504,0
8.913624213000276,3728,1360,0
8.91677765400027,2224,1792,0
8.920613779000178,17108,2992,0
8.923727279000104,5153,1264,0
8.927748785999938,16115,4305,0
8.931510617000185,1792,2336,0
8.934675276000235,6865,1840,0
8.938734523000221,21253,1888,0
8.941820438999912,4769,1792,0
8.94560790100013,12451,3760,0
8.949501134999991,23045,2304,0
8.952818002000186,10082,3072,0
8.956717198000206,11410,2720,0
8.959729505000269,1248,1264,0
8.963663831000304,10226,1456,0
8.966884885000127,6385,1424,0
8.970665023000038,24421,3408,0
8.974677800000336,4753,912,0
8.977634215000307,21765,3536,0
8.981612273000337,20901,928,0
8.984695119000207,7393,1184,0
8.9884959420001,5537,2752,0
8.99161597400007,24437,960,0
8.995475631000318,6033,3744,0
8.998698575000162,15523,3104,0
9.002545621000081,4097,2752,0
9.006451733000176,20757,1616,0
9.009599957000319,31575,1888,0
9.012645558000258,0,544,0
9.01644395600033,10098,4913,0
9.020314666000104,13971,768,0
9.023444890000064,1632,1840,0
9.027298585000153,11554,944,0
9.030377511000097,32519,1792,0
9.034430765000252,25078,912,0
9.037675910999951,27462,1648,0
9.041614004000166,0,4545,0
9.044638931999998,47211,1792,0
9.048380005000126,13587,1584,0
9.052532304000124,60382,2784,0
9.055605432999982,46075,2000,0
9.059545816000082,22181,1232,0
9.062649569000314,6993,2208,0
9.066594111000086,10578,3824,0
9.070467997999913,65535,1744,0
9.07457598200017,65535,13619,6433
9.077528505999908,31751,2608,0
9.08149321100018,43706,2176,0
9.084526522000033,44538,1280,0
9.088674672000252,48747,4785,0
9.092639770000005,5441,2256,0
9.095685983000294,9986,3360,0
9.099575517000176,15859,1632,0
9.102684551000038,16099,1520,0
9.106739866000225,3856,8978,0
9.11056879500029,22357,1616,0
9.113728372999958,27494,1856,0
9.11772694199999,14675,1888,0
9.120682511000268,464,2048,0
9.124741270999948,2208,960,0
9.127847018000011,52380,1632,0
9.131650282999999,19140,992,0
9.134726251000302,12547,3072,0
9.138755217999915,7345,3120,0
9.142680053000277,2352,2528,0
9.145612376999907,12755,1280,0
9.148828383999899,0,1280,0
9.152793982000276,26070,4593,0
9.15676475600003,27318,2832,0
9.159866204000082,25702,2064,0
9.163664424000217,23973,1280,0
9.167585862000124,65535,10418,5377
9.170739034000235,464,1120,0
9.174767687999974,62111,1280,0
9.178711279000254,42826,1824,0
9.181619567000325,272,1792,0
9.185742178000055,11666,1744,0
9.188712429000134,9266,1008,0
9.192737708000095,1744,1072,0
9.195713509000143,17412,2432,0
9.199644602000262,18228,1792,0
9.20375113,41370,2816,0
9.206746012000167,18388,1952,0
9.210672895000243,24982,1728,0
9.21372152999993,8962,0,0
9.217580106000241,4305,2384,0
9.22072598900013,3312,3344,0
9.224561525999889,13523,2160,0
9.227667521000058,4561,2160,0
9.231573299000047,37161,3328,0
9.235530271000243,11266,2096,0
9.238604482000028,43674,4273,0
9.24274801699994,21509,2304,0
9.245915607999905,36280,1808,0
9.249552202999894,1904,2304,0
9.253482322000309,1488,1072,0
9.256584534000012,7681,3376,0
9.260604178999984,65535,7153,1824
9.264510542000153,32840,2160,0
9.267814600000293,9010,2432,0
9.271746477000306,4721,1856,0
9.274694116000319,3680,3936,0
9.278734055000314,3440,2032,0
9.281607022000117,6929,2048,0
9.285495088000062,10546,3328,0
9.28940916800002,11666,1488,0
9.292589548000251,3216,2848,0
9.296503801000199,8690,3328,0
9.299607034000019,5569,1872,0
9.302645790000042,0,1552,0
9.306545046000338,7281,5857,0
9.309671108000202,2560,2592,0
9.313477349000095,14611,3600,0
9.317380612000306,8482,2544,0
9.320343110000067,5201,2336,0
9.324375719000273,17364,2480,0
9.327554987999974,29703,2896,0
9.331543931999931,1584,6081,0
9.33561709300011,16820,3328,0
9.338670153000294,1824,2448,0
9.342631259999962,13219,3024,0
9.345682575999945,11490,1632,0
9.349661994000144,4080,3040,0
9.352642712000033,1504,1616,0
9.3565829019999,4513,6289,0
9.359653205000086,64,800,0
9.363512194000123,0,1136,0
9.36660788800009,12226,3232,0
9.370453319000262,256,2496,0
9.373651040999903,6145,3424,0
9.377487924999969,4593,2256,0
9.380535283999961,0,1904,0
9.383709946000181,0,2000,0
9.387553659000332,3600,2736,0
9.39055767400032,2096,2256,0
9.3947500700001,3296,2048,0
9.397724472999926,3536,1424,0
9.40173684299998,1136,6161,0
9.404869987999973,6945,1536,0
9.40864082600001,720,4689,0
9.411858570000277,3328,1104,0
9.415614708000248,10962,7585,0
9.419681050000236,2080,4369,0
9.422784956000214,2464,1872,0
9.426573540999925,4753,2368,0
9.429630758000258,880,2000,0
9.43373968600008,2544,1392,0
9.436617844000011,5201,4129,0
9.440477724000175,512,1296,0
9.443736445000013,3072,1568,0
9.447659916000248,9314,2592,0
9.450622331999966,560,2192,0
9.45474703400032,2016,2672,0
9.457657827000276,1552,2272,0
9.461680944999898,96,1472,0
9.464698100000078,9554,1984,0
9.468635520000134,6321,1904,0
9.471897860999889,1792,1536,0
9.47566894800002,3056,2512,0
9.478870829000243,1632,2176,0
9.482804768000278,1680,2816,0
9.485738244999993,8978,1456,0
9.48978996400001,1888,1216,0
9.492877993000093,8962,1728,0
9.496738077999908,2960,7137,0
9.499883687999954,576,768,0
9.503769461000047,4865,1824,0
9.506975749000048,8017,3024,0
9.510530532000303,512,4289,0
9.513743762000104,0,1712,0
9.517751964000126,15635,2400,0
9.520645010999942,496,1040,0
9.5247219150001,4897,2240,0
9.527853446000336,1776,1840,0
9.53160922699999,4721,3328,0
9.534818981000171,4561,2048,0
9.538773974999913,3584,2576,0
9.54182485199999,0,1824,0
9.545566902000246,9074,1808,0
9.54866496700015,1696,2048,0
9.552612140000292,4465,1792,0
9.555876150000131,6689,3568,0
9.559742865000317,320,272,0
9.562861783000244,14691,2128,0
9.566658706999988,9986,1920,0
9.569839767000303,1024,1104,0
9.57371520400011,5809,1296,0
9.576914090000173,2144,2352,0
9.580509404000168,1504,6049,0
9.583679858000323,944,3056,0
9.587585793000017,2208,7089,0
9.59066158099995,4817,2224,0
9.59457624200013,5393,3840,0
9.598474529000214,4129,1408,0
9.601596053000321,2336,2784,0
9.60545660300022,7185,1184,0
9.608458603000145,2304,3328,0
9.612373412000125,6145,2224,0
9.61543607700014,9202,2640,0
9.619387818000178,800,2480,0
9.622633072000099,464,1440,0
9.626593735999904,4913,2784,0
9.62963179899998,928,2640,0
9.6335482530003,6897,1872,0
9.6364181859999,4241,2480,0
9.640516010000283,736,1760,0
9.643679043000247,1072,4097,0
9.647571229000278,2832,1616,0
9.650524684000175,672,1216,0
9.6546168509999,3552,2064,0
9.657658752000316,1552,1392,0
9.661656548000337,1232,3408,0
9.664542545000131,3504,2080,0
9.668642912999985,2672,2192,0
9.67154256799995,2864,2304,0
9.675654937000218,7649,6673,0
9.67871563100016,0,912,0
9.681680226000026,0,2592,0
9.685523147999902,7409,2032,0
9.68877675900012,768,2624,0
9.692796006000208,3168,8033,0
9.695830425000167,4513,1472,0
9.699819130999913,1824,5409,0
9.703738310000062,1312,2336,0
9.706844197999999,9218,3008,0
9.70990631199993,768,1440,0
9.713744128000144,6161,2896,0
9.717707030999918,4721,1536,0
9.72062348899999,1792,2960,0
9.723793056999966,0,1376,0
9.727755810999952,4497,6417,0
9.730728402000295,1840,1584,0
9.734739262999938,5393,4721,0
9.738706119000199,3104,2672,0
9.741843577000054,1808,2896,0
9.745624415000293,2560,2240,0
9.748657612999978,2416,1840,0
9.75275422300001,4881,2432,0
9.755868464000287,7777,2864,0
9.759718352000164,160,1280,0
9.76287819900017,2992,2512,0
9.766653273999964,8145,1744,0
9.769864280000093,2032,2240,0
9.773625722999896,2208,784,0
9.776903110000148,2592,2016,0
9.780499098000291,0,2144,0
9.783859097000004,2448,3600,0
9.787766436000311,6385,2784,0
9.790632977000314,1280,1888,0
9.794814162999955,3232,2960,0
9.797711441000047,2544,2736,0
9.800733993999984,0,2096,0
9.804867361000106,4369,2992,0
9.808750668999892,3760,1680,0
9.811707536000085,3952,2768,0
9.815595905999999,7009,2320,0
9.818915786000161,1888,2512,0
9.822808554999938,544,2512,0
9.825916259000223,5633,2272,0
9.829629942000338,288,1200,0
9.83290837200002,3840,1616,0
9.836802375999923,6369,2816,0
9.839728240000113,496,1952,0
9.84366799999998,1376,1600,0
9.846811730999889,6817,2512,0
9.850544372000059,224,1792,0
9.853877348999958,1392,1856,0
9.857670068000061,5361,2400,0
9.860692506000305,1328,1712,0
9.86468624600002,2224,1824,0
9.867751193999993,5265,2048,0
9.871657170000162,2304,2480,0
9.874864890000026,7169,3360,0
9.878691469999922,2352,5905,0
9.881800660999943,0,2096,0
9.885599169000216,3248,1456,0
9.888833098000305,2752,2016,0
9.892533073000322,4977,2768,0
9.895620452999992,6177,2336,0
9.899464024000281,816,4080,0
9.902525732999948,768,2864,0
9.906423587000063,6145,2288,0
9.909443974000169,1392,1104,0
9.913592338999933,5217,3808,0
9.916713207000157,3264,2016,0
9.920479318000162,0,6401,0
9.92368941199993,672,1536,0
9.927667233000193,6913,2304,0
9.930535087999942,1648,1696,0
9.934684304000257,2816,1328,0
9.937757192999925,2464,1728,0
9.94171466700027,384,1648,0
9.944497958000284,4529,2080,0
9.948687226999937,1056,2016,0
9.95172575200013,4849,2272,0
9.955593417000273,9410,3040,0
9.958599735999996,256,2128,0
9.962562942000204,1328,1408,0
9.965789618000144,6993,2240,0
9.969747146999907,688,6897,0
9.972840648000329,5025,2544,0
9.976720816000125,6241,9746,0
9.979849624000053,496,1872,0
9.983876456999951,16,6097,0
9.9869944269999,4465,2752,0
9.99065296300023,720,2448,0
9.99394103900022,3408,1856,0
9.997718347000045,4048,2064,0
10.000814954999896,1648,1776,0
10.004875227999946,1392,944,0
10.007794279000336,4177,1536,0
10.011898570000085,3376,512,0
10.014827327000148,5841,1792,0
10.018712312999924,2032,1712,0
10.021998673000326,1216,2704,0
10.02587613500009,1712,6945,0
10.028879111000151,1440,2800,0
10.032917400000315,6001,5217,0
10.036609196999962,8274,2768,0
10.039914526000302,3664,2912,0
10.042968183000085,0,1584,0
10.046726752000268,4433,1792,0
10.049973561000115,1728,1376,0
10.053882688000158,1376,5889,0
10.056917924000118,5745,2512,0
10.060655531000066,3536,3296,0
10.063869620000332,768,1792,0
10.067779114000132,8706,3408,0
10.071718507000242,1424,1296,0
10.074788594999973,5377,1952,0
10.078801829999975,3200,2048,0
10.08172066499992,1696,1968,0
10.085777433000203,7153,2816,0
10.088921006999954,1808,2304,0
10.09282417400027,6961,1856,0
10.095792899000116,5985,3088,0
10.099871844000063,944,1920,0
10.102941080000164,688,1984,0
10.106741447000331,9154,2464,0
10.109953069000312,1760,3072,0
10.11374009300016,2640,2976,0
10.116914878999978,1296,1744,0
10.120639702000062,0,2304,0
10.123846486000275,3552,1520,0
10.127731768000103,6689,3056,0
10.130708667999897,816,2368,0
10.134818780999922,3696,1200,0
10.137964082000053,3472,2416,0
10.141852486000062,624,2048,0
10.144954918000167,3056,2304,0
10.148852854000324,4305,2560,0
10.151946921000217,5553,2000,0
10.155737213000066,9250,2832,0
10.158971101000134,512,1584,0
10.162570614000288,0,1264,0
10.16570558300009,8930,3664,0
10.169570868999926,208,2080,0
10.172700978000194,7169,2800,0
10.176575901999968,6145,2208,0
10.17969810700015,1888,1968,0
10.183577612000136,432,3584,0
10.186659206000058,7585,2304,0
10.190529731999959,1392,2464,0
10.193599346000155,800,1520,0
10.19748610500028,3728,1456,0
10.200504698000259,1104,1952,0
10.204444746000263,4401,2816,0
10.207670346000214,3712,2384,0
10.211753503000182,1568,1280,0
10.21452624199992,6817,3232,0
10.218595579000066,2160,1792,0
10.221698835000097,96,2208,0
10.225734757000282,6129,1792,0
10.228702054000223,1008,2960,0
10.232750644000134,2816,1888,0
10.235771509000188,5153,1472,0
10.239557383999909,656,1776,0
10.24246582600017,1088,1008,0
10.246451870000328,4353,1808,0
10.249773397999888,304,1552,0
10.253607818000091,3328,2272,0
10.25660895100009,2272,1696,0
10.260500244000013,0,6401,0
10.263630236000154,256,2208,0
10.267749029000242,6513,1280,0
10.270693314000255,1424,1280,0
10.274696595000023,3344,1024,0
10.277978107000308,1152,1680,0
10.2817407739999,1328,1696,0
10.284867420999944,5889,2816,0
10.288767522999933,208,1376,0
10.2920217220003,2480,1712,0
10.295916426000076,8450,2400,0
10.298822186000052,816,2224,0
10.302720722000231,32,2288,0
10.305828531000316,6321,1472,0
10.309044068000276,0,1680,0
10.312833023000167,7073,3184,0
10.316882480000004,5361,3088,0
10.319935762000114,1040,2480,0
10.3237337569999,1808,2112,0
10.327020846000323,5873,1264,0
10.330667548000292,304,1360,0
10.333962361999966,3152,2000,0
10.337898480000149,3824,1472,0
10.340788158000123,704,1280,0
10.344848408999951,1120,1808,0
10.34778399400011,6833,2464,0
10.351897349999945,1232,1280,0
10.354884624000078,6897,2736,0
10.358891148000112,3472,2288,0
10.361834578000071,208,2384,0
10.365912690000187,6417,1616,0
10.36901733700006,1888,2064,0
10.37291990299991,6881,8962,0
10.375899178000054,5681,2768,0
10.381409193000309,0,6401,0
10.38278161900007,1520,1280,0
10.386502710000059,7953,1296,0
10.38949577600033,896,2288,0
10.39347864499996,2816,2016,0
10.39653520999991,2320,1776,0
10.400483021000127,0,1040,0
10.403525677000289,2224,2272,0
10.407512561000203,4769,2352,0
10.410495465000167,1888,1104,0
10.414490707999903,1792,1552,0
10.417529820000254,1104,1840,0
10.421470839999984,0,3072,0
10.424519369000336,3216,2736,0
10.428512047999902,4016,1216,0
10.43152480100025,6369,3392,0
10.435464677000255,7745,3056,0
10.43846118700003,1248,2128,0
10.442459855999914,80,2080,0
10.445484015000147,6209,1680,0
10.44942626000011,864,1600,0
10.452508484000191,5201,3328,0
10.456475014000262,3296,1392,0
10.459455844000331,1872,2304,0
10.46343588300033,768,1504,0
10.466427194000062,6465,2336,0
10.470403085000271,256,2048,0
10.473487806000321,3600,2032,0
10.477404664000005,4353,3696,0
10.48078772000008,704,2592,0
10.484703333000198,1552,1824,0
10.48770242799992,6353,2304,0
10.491443874000197,992,2320,0
10.494864295000298,4497,4193,0
10.498763800000233,2256,2000,0
10.501527985999928,0,1600,0
10.505735435000133,5377,1872,0
10.508727937000003,3120,2544,0
10.51274281699989,4353,1040,0
10.51572926300014,6913,2816,0
10.519471103000342,512,1824,0
10.522712760000104,1504,2080,0
10.5266736210001,5361,1072,0
10.529605503000312,1712,1200,0
10.533648092000021,1888,2208,0
10.536663811999915,4769,3184,0
10.540580208999927,1168,2896,0
10.543785054000182,1280,1808,0
10.547656767000262,2528,400,0
10.550800178999907,1168,1232,0
10.554951170000095,7425,1392,0
10.557914721000088,1584,1696,0
10.56192688300007,384,5601,0
10.564888696000253,3472,1824,0
10.568831114000204,3248,8450,0
10.571930177000013,2224,2032,0
10.575829811999938,9810,3680,0
10.579697167000177,1664,1200,0
10.582944589999897,2224,4305,0
10.586933774000045,5041,2224,0
10.590002878000178,2080,2448,0
10.593914317000326,3840,1744,0
10.596890135000194,3632,3152,0
10.60069667300013,768,2320,0
10.603996338000343,1184,880,0
10.60779194099996,6417,2320,0
10.610809871000129,1904,2304,0
10.6147445229999,2848,1024,0
10.617901031000201,3216,1568,0
10.621932769000068,784,2560,0
10.625016551000044,3168,1440,0
10.628895850999925,1792,2912,0
10.631831875999978,5921,2480,0
10.635964997999963,10674,2304,0
10.6390639870001,2032,848,0
10.642829049000284,2048,6513,0
10.645943705000263,5569,2000,0
10.649941618999947,3984,3264,0
10.653737238000303,3312,1520,0
10.656838937999964,5057,4225,0
10.6606870720002,576,2048,0
10.663857722000103,3040,2848,0
10.667911114000162,5009,2608,0
10.67092662899995,2304,1760,0
10.674808781000138,3872,2048,0
10.677889481999955,2304,1952,0
10.680880998000248,0,1248,0
10.684792498000206,7473,4000,0
10.6888812709999,1888,2560,0
10.692010522000146,2832,2352,0
10.695787270999972,7217,2640,0
10.698770880000211,2784,2576,0
10.702073958000256,0,1648,0
10.705991559000267,11698,4337,0
10.708924719000152,544,976,0
10.712862477000272,4241,7185,0
10.715920727000139,5121,3760,0
10.71998861100019,2384,1952,0
10.72281331000022,0,688,0
10.72662583600004,6401,2048,0
10.729751270000179,768,1792,0
10.733695584000088,1280,1648,0
10.736763570000221,2048,1728,0
10.740601857999991,0,2000,0
10.74372862500013,3328,4833,0
10.747598169999947,4433,2304,0
10.750620064000032,1024,1728,0
10.754499258000124,4257,2656,0
10.757574186000056,2192,1744,0
10.76147853600014,0,3376,0
10.764506062000237,4865,4209,0
10.768688810000185,2736,2304,0
10.771684514000299,1632,1504,0
10.775860228000056,7553,3072,0
10.778739813999891,1120,1792,0
10.782536046000132,336,2752,0
10.785851176000051,4865,720,0
10.788838408000174,0,1760,0
10.792530665999948,5153,4353,0
10.795767952000006,6321,2816,0
10.799785608000093,3440,3184,0
10.802563961000033,0,1056,0
10.806774016999952,5249,3024,0
10.809804995999912,0,256,0
10.813641368999924,4929,2464,0
10.81669464200013,5121,2560,0
10.820553852000103,1136,784,0
10.823709205000341,3040,2784,0
10.827766652000264,4273,2400,0
10.830699400999947,3440,1760,0
10.834764981000262,4945,2192,0
10.837878340000316,3600,2352,0
10.841697509999904,1232,1040,0
10.845021204000204,1904,1200,0
10.848779531000218,2208,3328,0
10.851747166000223,3408,1520,0
10.85595295100029,11282,1456,0
10.859713385000305,2096,1104,0
10.862939885000287,2816,3216,0
10.866818311000316,8754,2048,0
10.869844801,2016,2384,0
10.8737935500003,3840,3696,0
10.876979733000098,5857,3392,0
10.880702159000066,656,896,0
10.883856416000071,1776,3328,0
10.887771806000274,4097,1328,0
10.89087366800004,1184,1328,0
10.894963891000316,2992,1280,0
10.897855852000248,3616,2368,0
10.90084006699999,0,800,0
10.904947513000025,336,5937,0
10.9079281610002,2960,2352,0
10.911830694999935,5041,6673,0
10.914856517000317,9474,2512,0
10.918844103000083,6801,4561,0
10.92188989000033,848,1152,0
10.926008719000038,8145,3232,0
10.929931857000156,5617,4193,0
10.932884000000286,8850,1968,0
10.936787688000095,5617,2720,0
10.93990512900018,752,1136,0
10.943052113000249,0,2624,0
10.947058733000176,1872,2032,0
10.950084650999997,240,1776,0
10.953828423000232,8113,1216,0
10.956988376000027,5809,1488,0
10.960880021000321,2032,8097,0
10.963948767000147,1520,1392,0
10.968025315999967,11090,2656,0
10.971812413999942,2048,768,0
10.97499678000031,7969,1744,0
10.978947013999914,2208,2144,0
10.981764882000334,768,1584,0
10.985874633000094,4177,1632,0
10.98905718900005,9906,2432,0
10.992820806000054,12291,1136,0
10.995936611000161,3328,2224,0
10.999867087999974,18084,736,0
11.003050767000332,9266,1488,0
11.006908329999987,4977,2160,0
11.009988835000058,10786,2064,0
11.013846251999894,1552,2016,0
11.017649300999892,4000,1744,0
11.020809719000226,5089,1904,0
11.024705097000151,9442,1360,0
11.027866149000147,8434,1552,0
11.031682342000295,3376,1056,0
11.034783437999977,1648,2304,0
11.038709771999947,22485,2528,0
11.041812308000317,3024,944,0
11.045639420000043,23381,5617,0
11.04959393099989,13555,1520,0
11.052627062000283,8177,1712,0
11.056560773000001,9522,2208,0
11.059604989000036,6177,1280,0
11.063526831000217,2448,1968,0
11.066770343999906,20661,0,0
11.070831173999977,4593,1024,0
11.073787860000266,2352,2080,0
11.077829061000102,11826,2144,0
11.080652152000312,35448,1280,0
11.084742849000122,5713,4641,0
11.087806042000011,6657,768,0
11.091867412000283,13379,5105,0
11.095805010000277,3248,4064,0
11.098523218000082,1168,1328,0
11.102771617000144,2304,1792,0
11.105632500999945,2768,1024,0
11.109711384000093,13395,2576,0
11.112845772000128,23797,2640,0
11.116730070999893,14387,6849,0
11.12066145000017,9618,2000,0
11.123880839000321,7201,3824,0
11.127682461999939,2704,1808,0
11.130789697000182,944,1904,0
11.134844345000147,4865,432,0
11.137839145000271,2816,4113,0
11.141776934000063,19380,2048,0
11.14506327800018,37993,2048,0
11.148807371000203,17316,2064,0
11.152859782000178,13555,1280,0
11.156038380000155,20004,3888,0
11.159659337999983,256,832,0
11.163027947000046,3552,1936,0
11.166996160000053,18932,2192,0
11.169816258000083,3504,3072,0
11.173855500000172,17156,2624,0
11.177109940000264,1792,3120,0
11.180924545999915,816,6561,0
11.183936383999935,38601,4353,0
11.187900227000227,37177,4593,0
11.191906884000218,1536,2352,0
11.194875594000223,16131,2160,0
11.198850435000168,25126,1328,0
11.202891335000004,25350,1456,0
11.206025090999901,28855,2816,0
11.20993935200022,15923,4000,0
11.213734191000185,1504,2992,3392
11.21701867899992,26070,2592,0
11.220841183000175,13315,688,0
11.223949274999995,28775,1472,0
11.227901886999916,16612,2160,0
11.231667561999984,4641,1360,0
11.234746281000298,3360,2048,0
11.238905745000011,6321,1552,0
11.242041026000152,8690,1696,0
11.245968280999932,9682,1664,0
11.248873946999993,25622,2400,0
11.25298058699991,38889,1376,0
11.256184718999975,4177,2384,0
11.259816479000165,3744,7441,5601
11.26377917300033,1024,7569,2144
11.267852391999895,3328,96,480
11.27086865299998,11522,1792,0
11.274970464000035,60398,2704,0
11.277936601999954,32727,1792,0
11.281805026000256,6945,3696,0
11.28514074900022,1872,7425,0
11.289057249000052,21365,7713,0
11.292945159000283,1088,3168,0
11.295963058000325,4865,3328,0
11.300005290000172,25862,1808,0
11.303117614000257,12547,2048,0
11.306996626,14307,5345,0
11.310970072000146,8898,3040,0
11.313888878999933,10546,1584,0
11.317766850000226,22261,1792,0
11.320877844000279,45339,752,0
11.324806624000303,26454,7409,0
11.32870610000009,4865,2000,0
11.331827998000335,2992,2928,0
11.335751647000052,12082,1280,0
11.338760273999924,2608,11442,208
11.342682321000211,35416,4097,2544
11.346654099000261,24325,5553,0
11.349651165000068,6433,800,0
11.353617362000023,4113,5745,1072
11.357873981000012,7313,1136,0
11.360646631000236,768,1232,0
11.364913704000173,13123,13475,0
11.368909175000226,15283,2000,5009
11.371838731000025,2400,4705,0
11.37586202600005,12515,1936,0
11.379864176999945,21653,1360,2192
11.382918919000076,18324,2064,0
11.386916321000172,10898,4577,432
11.390888894,36568,0,7425
11.394858355999986,23477,3472,288
11.397882576000029,4913,2896,0
11.401878709999892,4833,3328,0
11.404892192000261,10674,6497,0
11.408887851000145,2816,3104,0
11.411925984999925,6417,720,0
11.415919136999946,19732,6577,1024
11.41988220400026,1280,496,0
11.422983787000248,256,2400,0
11.426921252000284,11042,1904,0
11.43009701400024,11522,2400,0
11.43388195100033,13571,3696,0
11.437983326999984,11010,2000,0
11.44108386300013,1632,9010,0
11.444783394000297,112,3312,16
11.447935813000186,9394,2464,0
11.452035138000156,7905,2096,0
11.455023686999994,16019,7793,0
11.458889245000137,4080,5665,944
11.463073703000191,16307,1520,6401
11.466916328000025,7137,10834,0
11.470102269000108,13571,9810,0
11.474001062000298,11954,6097,4577
11.478067056000327,4849,2464,11186
11.481975160000275,2064,11394,0
11.48516425600019,16099,1360,4433
11.48908495700016,4177,14595,0
11.492861146999985,13683,7585,8033
11.496920818000035,11490,8850,0
11.50010359099997,16580,2048,0
11.503938668000046,23781,5937,0
11.50719224400018,13091,2208,0
11.510983874999965,2992,5377,1824
11.514918745000159,7441,3072,2304
11.519004168000265,4801,4401,0
11.522112223000022,4865,5377,2560
11.526086404000125,10402,3488,1488
11.529835363000075,4417,0,0
11.533059151000089,13107,880,0
11.536915739000051,11714,2704,0
11.540157322000141,1584,288,2528
11.543901200000164,720,4289,4048
11.547887527000057,23413,2672,4177
11.551932649000264,1360,9074,0
11.555130524000106,8033,2816,6657
11.559074008000152,30295,2544,0
11.562988845000291,18068,9650,0
11.566786598999897,10162,2816,11218
11.57078566500013,20180,2384,11954
11.57390033899992,4321,4401,0
11.57796605500016,5233,1072,0
11.581025915000282,6225,1312,1280
11.585069700000076,944,4529,3120
11.589032229000168,13347,2576,2400
11.592925683999965,2272,3296,0
11.596074926000256,1968,10002,0
11.600091365000026,11506,6225,4785
11.603944179000337,6513,3088,3808
11.60715538500017,22245,2304,0
11.610861869000018,4080,7313,0
11.6147433000001,17076,1296,0
11.617917202000172,4401,8882,0
11.621650246000172,4497,624,0
11.624926464000055,8498,544,0
11.628690586000175,1536,1584,0
11.632066858000144,3824,1280,5153
11.635794196999996,8129,8161,1616
11.639637927999956,3744,1552,0
11.642749795000327,4865,14931,0
11.646646707999935,2560,3152,5233
11.650619034000101,3600,7025,7489
11.653670073000285,2592,1328,0
11.657938868000201,5425,5633,80
11.661857806000171,5617,3072,2368
11.6649063320001,2304,7265,0
11.668947491999916,4881,7777,0
11.671984632000203,4657,1024,0
11.675882438999906,13219,9826,5489
11.679869120000149,0,7169,0
11.68291457300029,1584,816,0
11.686910226000236,4865,3920,0
11.689881499999956,5809,14707,0
11.6937576790001,6913,1280,0
11.697881165000126,3760,5921,3600
11.70064947300034,26982,16644,0
11.704913696999938,208,1776,0
11.70792974699998,7185,1680,0
11.711852106000151,0,3328,0
11.714934770000127,8033,1472,0
11.718758307999906,6417,1168,0
11.72182493199989,2080,1504,0
11.725769646000117,6705,1280,0
11.728790894000213,2768,1536,0
11.732821894000153,13267,7633,3568
11.736944498999947,26742,4913,4913
11.740924198999892,8482,768,2368
11.74404914500019,5777,10514,0
11.747898762000204,19188,2576,0
11.751878901000055,11522,1008,0
11.75492819100009,10786,1888,352
11.758888058000139,3872,4193,1456
11.762847435999902,6913,11730,0
11.766794742999991,4353,9042,1088
11.769895525000265,17156,9218,464
11.773888654000075,2816,4016,0
11.778082194000035,19700,2368,10754
11.781875627000318,9474,48,7825
11.784984123999948,6961,1904,496
11.789130231999934,21541,7473,21781
11.79307638399996,96,1280,12835
11.796785508000085,2352,10738,0
11.800075989000106,768,3184,0
11.803961609999988,5425,4433,4353
11.807077393000327,7025,3744,0
11.810965510000187,0,5873,0
11.814033052000013,1840,2000,0
11.818040177000057,13587,6801,0
11.821041021999918,3552,2816,0
11.824932577000254,2304,1088,0
11.828173053000228,2736,4385,0
11.832107067999914,10722,1952,0
11.835189193000133,4945,5809,0
11.838990915000068,736,1552,2544
11.842194889999973,0,1776,0
11.846126373000061,12595,3872,0
11.849848001000282,592,9522,0
11.85312218800027,3952,8081,0
11.856951517000198,20997,1120,0
11.860141997000028,4369,784,0
11.86392467099995,15219,1024,1792
11.868010213000161,0,2304,1392
11.871118536000267,2560,2416,0
11.875045755999963,20340,7937,0
11.878133990000151,0,1264,1040
11.881898031000219,1168,4545,0
11.885180971999944,8177,0,5009
11.889015805000327,9474,5297,10066
11.892915180000273,22053,1280,0
11.896078005000163,23653,992,0
11.900080143000196,0,3360,752
11.903044701999988,160,2592,0
11.906984654000098,23365,2816,3904
11.910799806000341,736,1552,0
11.913975677000053,14979,6401,0
11.917756486000144,80,7409,0
11.920894196000063,16035,672,0
11.9247531420001,5889,880,0
11.927860731000237,768,8402,0
11.93176129800031,4817,1248,0
11.934754780000276,38841,4865,0
11.937833382000008,0,2224,0
11.941730351999922,10402,11746,0
11.945704993000163,25366,15139,13571
11.94961926399992,9842,864,0
11.953929120000339,15107,2016,1296
11.956881601000077,22133,4369,0
11.960963449000246,8466,6817,0
11.963863426999978,24742,1696,0
11.967949703000158,8466,1296,0
11.970888838000064,688,32,0
11.974952704000316,2896,496,416
11.977979997000148,7249,4385,0
11.981976020000275,1776,2096,3744
11.985926463999931,8626,7345,0
11.988968168000156,1952,8258,480
11.99296828100023,30247,4241,0
11.996944217999953,10642,21509,8962
11.999981373000082,3248,1280,0
12.003785829000208,1904,2784,576
12.007895709999957,11234,5889,976
12.01184817300009,80,784,7057
12.014795191000303,9826,4689,0
12.018640011000116,10914,880,0
12.021876411999983,3328,3088,0
12.02601071700019,12258,1296,0
12.029179757000293,5985,6833,400
12.033116079000138,8706,3248,2464
12.036951236000277,12323,1648,0
12.04017037199992,5201,1024,0
12.043925740000304,0,8722,0
12.047138641999936,1200,1600,0
12.051051727999948,2480,4401,0
12.053990477000298,160,480,0
12.058082205000119,11842,1376,432
12.06113133000008,0,3280,0
12.065098112000214,256,2080,2384
12.06822302899991,400,1536,0
12.072118145000331,4433,3792,0
12.076100443000087,13427,15715,6801
12.079929902999993,1696,3584,1952
12.083045503999983,8450,3936,0
12.08707898800003,4321,5009,0
12.091012564000266,880,14835,5201
12.094013020000148,528,7473,0
12.097094008000113,6513,9986,0
12.101127843000086,8802,11762,0
12.105047205000119,11442,656,0
12.108210302000316,10498,5233,0
12.112105007000082,5809,5489,0
12.115048834999925,24261,3552,0
12.119149409000329,6305,2880,0
12.122943460999977,4449,10018,0
12.126189174000046,15891,2976,0
12.12997015000019,5393,512,0
12.133924922000006,19156,1520,2480
12.1370182630003,6417,4177,0
12.141113876999952,12066,7265,3616
12.145043950999934,13315,7729,0
12.1480346620001,6673,1344,0
12.15208607600016,14691,10498,0
12.156068189000052,19412,2048,1088
12.159199437000098,8466,4497,0
12.162996217,2528,3184,0
12.1662253530003,11186,2000,0
12.170146837000175,4817,6193,0
12.173115388000042,2272,1616,0
12.177082564000102,2560,5265,2048
12.180931026000053,3120,6385,0
12.185076121000293,4657,3872,3840
12.18817505800007,4145,1552,0
12.191956845000277,5345,1456,0
12.194962149000276,25718,768,0
12.198983459999909,6001,304,0
12.201976503999958,992,3216,1232
12.205957805000253,1824,13315,1200
12.209859685000083,6449,5809,0
12.212948457000039,0,3968,144
12.21693072700009,7217,5377,0
12.22084635400006,9362,12467,9074
12.224076198000148,1680,4401,0
12.227922685000067,19636,7073,0
12.230824947000201,6865,7857,0
12.234820377000233,18772,6913,656
12.238689282999985,9554,368,0
12.241730667999946,6321,1360,0
12.245697925000059,7409,2672,1952
12.24890180300008,0,3312,2048
12.252895454000281,8354,3600,0
12.256961289000174,15891,2000,5153
12.260637651000252,3328,4321,3920
12.263974256999973,11874,592,4241
12.267982947000291,31127,23557,0
12.271966153999983,656,1248,19828
12.275815905999934,112,1248,16644
12.278996213000028,4385,480,0
12.282927176000157,5473,0,112
12.285977323000225,4177,10722,0
12.289869699000064,0,3040,0
12.292959987999893,6113,4785,0
12.296782096000243,3376,1760,0
12.299886639000306,400,2064,3632
12.303833823000332,0,20741,560
12.30794713000023,14419,4769,0
12.311024724000163,3584,10498,0
12.315102845000183,6913,3392,12451
12.318861920000018,1984,9394,0
12.32213026799991,1248,1200,0
12.326135424000313,12979,624,768
12.32920623200016,7505,6401,0
12.33310577400016,4209,0,1376
12.336086605000219,2048,864,0
12.340068723000059,2304,7425,0
12.343914277000295,416,12659,4529
12.347018237000157,0,2080,0
12.35105839400012,15267,1648,0
12.354172650000237,10498,2352,2208
12.358176338000249,26422,3616,0
12.36209744100006,14595,5361,0
12.365034293999997,9474,7953,0
12.36911688500004,9890,4625,0
12.372146420000263,768,3728,7969
12.376201870999921,13683,3040,3232
12.380089902000236,0,7345,768
12.383818868000162,7457,1664,2208
12.387101733000236,10930,6881,96
12.390939418000016,2000,2848,2640
12.395109763000164,11570,1488,0
12.398025525000321,1760,1776,0
12.402142929000092,1792,1200,688
12.405274394000116,224,1184,0
12.409112421999907,0,4113,0
12.412047250000342,0,1568,2544
12.416118482999991,6241,13203,0
12.419887690999985,3568,5169,928
12.422970902000088,4097,1616,0
12.427142175999961,9842,1840,2464
12.430157513000267,3056,9842,0
12.433946847000243,5841,12291,0
12.437047089000316,288,624,0
12.44106125999997,1488,3936,0
12.443958230000135,144,4385,0
12.447959751000326,1024,6433,0
12.451964279000094,21621,1824,0
12.455155853000178,24117,3840,0
12.458983527000328,2864,1712,1888
12.46302643900026,22789,28919,0
12.467023629000323,27574,1648,4016
12.470117923000089,24181,5681,0
12.473909481000192,14227,11794,0
12.47801042600031,928,13859,1328
12.482068795000032,38649,17812,10274
12.485094179000043,0,14595,0
12.488918799000203,5713,3584,3616
12.492991258000075,15027,4865,0
12.496089569000105,1280,4273,0
12.499787577000006,0,4481,464
12.502986902999965,800,1760,0
12.506806555999901,11346,768,0
12.510038308000276,112,1248,656
12.513796947000174,7377,1792,2304
12.516899531000035,1872,1568,0
12.520726989000195,3248,4865,0
12.523807467000097,0,1040,0
12.527668505000292,2832,0,0
12.530720359000043,4064,3728,0
12.53472730500016,8354,1168,0
12.537816825999926,4833,1536,0
12.542036393000217,1280,5009,0
12.54506568700026,912,3568,3696
12.548859045999961,0,10498,0
12.552963257000101,14771,8850,1760
12.555941257000086,720,816,0
12.55993983999997,12547,1584,2256
12.563702713000112,0,15843,14131
12.56698360900009,14195,2096,5857
12.570956990000013,5393,5585,0
12.57496167699992,2928,2000,0
12.57805949800013,2080,7121,0
12.581878046999918,6161,8161,0
12.585046305000105,10146,1456,0
12.589002984000217,768,2816,0
12.591938542000207,9106,7169,0
12.596026393000102,8434,2320,0
12.599029578000227,0,1072,0
12.602103882999927,208,1920,0
12.60620886400011,8290,2672,0
12.609280722000221,176,2400,0
12.61309013600021,5329,3168,0
12.61708627500002,3072,1008,0
12.620111637000264,0,592,0
12.623101756000324,2064,928,0
12.6270407410002,10418,928,0
12.630076442000245,0,1344,0
12.63381278099996,3872,4641,0
12.637084182000308,14867,3312,0
12.641026603000228,4385,1248,0
12.643974395999976,2832,8482,0
12.648070820000157,5825,4865,0
12.651176177000252,21237,240,0
12.65512468299994,1360,14003,0
12.659052770000017,0,12387,14131
12.661926632999894,14339,3152,0
12.666112933000022,560,4625,0
12.67011280099996,11634,19044,14227
12.673866764000195,1456,8962,2464
12.677116237000064,0,3408,0
12.680353042000206,608,16019,0
12.683896795000237,5377,0,0
12.687112454000271,14387,6913,0
12.691025360999902,1792,768,752
12.694975156000055,7025,1024,800
12.698064332000286,4865,2400,0
12.702092490000268,2256,1280,0
12.705187137999928,3584,1216,0
12.70894159699992,4145,160,256
12.71226920800018,6833,960,544
12.716170224000052,9890,3872,0
12.719238714000312,304,4016,0
12.723041930999898,1184,6113,0
12.726996834000147,14019,1376,0
12.730305107000277,3440,2816,0
12.733912779000093,17636,13059,0
12.73788114800027,12611,2272,368
12.740938781000295,3568,5713,0
12.744889349000005,2016,3312,0
12.74821689800001,32423,2720,0
12.752210285000274,10642,2816,1056
12.756144726000002,16996,17588,0
12.76008412200008,1808,10050,768
12.763110484000208,64,3376,0
12.766981855000267,1024,4721,0
12.770236837000084,672,14307,0
12.773912996000035,22037,8994,0
12.777962855000169,3344,5905,1120
12.781019730000025,4353,2896,0
12.7849658680002,34008,7697,10674
12.788815898999928,1568,944,0
12.791908707999937,8626,1600,0
12.795851113000026,17300,2096,0
12.798928793999949,0,5553,0
12.802894041999934,480,11522,2384
12.805969922000259,9794,1040,0
12.809792335000111,0,1936,0
12.812962964000235,9282,3616,0
12.816806536000058,12130,4577,0
12.819824598000196,0,1120,0
12.823729490000005,1360,1584,0
12.826740514999983,13555,7265,0
12.83072046899997,1472,1584,0
12.835003508000227,6913,2160,2528
12.838012213000184,2064,3856,0
12.84104183799991,0,2336,0
12.84492733900015,0,8722,0
12.847994663999998,2096,0,256
12.851874423000027,992,4064,0
12.85498319699991,1792,12547,0
12.85898818800024,6145,10738,19668
12.86282428100003,7937,13459,0
12.866001937999954,6945,11186,0
12.869989482000165,11778,768,5889
12.8738447730002,41178,4865,0
12.876999523999984,1328,9042,0
12.880993300000227,21253,3120,10594
12.88509444400006,29399,4097,2704
12.888920423999934,880,3504,0
12.892099319999943,16612,6049,0
12.896087609999995,13107,10162,1840
12.899061579000318,0,1696,0
12.903271079000206,2448,12547,256
12.907049934000042,7425,256,0
12.910139666000305,1024,800,864
12.914046920000146,4785,640,1504
12.918130136999935,8866,7665,0
12.92112357499991,0,2768,4353
12.925178404000235,2384,1888,0
12.92823242700024,6145,3840,0
12.932182192000255,2576,3696,0
12.935207923000235,9586,4945,5537
12.93921385900012,4449,1456,0
12.942956129000322,4385,1536,0
12.946158056000058,272,7521,6241
12.95025841000006,5809,304,2384
12.953974308999932,3296,1792,576
12.958101102,9986,11234,4353
12.961300162000043,2832,2800,6929
12.965187332999903,22821,0,0
12.969122684000013,21045,752,2464
12.972266951000165,21157,5329,0
12.976175136000165,0,11570,944
12.980160331000206,47099,18564,6449
12.982990838000205,6161,2224,0
12.98705385700032,7185,896,1552
12.99034693900012,4353,8626,0
12.993969452000329,4577,4064,0
12.997287463000248,1056,720,0
13.001213472000018,496,3328,0
13.004100902000118,0,1184,2928
13.00802359599993,768,5617,0
13.011275937999926,5361,3648,0
13.015102664000096,7825,6145,0
13.018253688000186,2768,4097,0
13.02202977800016,3104,2000,0
13.026101397000275,10658,3328,2448
13.030029377000119,4865,16211,2320
13.033905671999946,15907,25142,13635
13.037229204000141,8177,1136,0
13.04120788199998,4721,0,624
13.04402800600019,0,2480,0
13.048202137000317,1952,3424,5393
13.051304313999935,720,1792,0
13.055245120000109,28759,304,0
13.058336672000223,7137,6785,0
13.062252049000108,432,11522,0
13.06600339600027,8370,10962,0
13.06924281900001,288,4897,0
13.073176524000246,10162,1280,0
13.076269806000255,8306,1872,0
13.080013431000225,1952,1040,0
13.083207500000299,15219,2560,0
13.087032095000268,400,2592,0
13.090066991000185,0,320,0
13.093808419000197,5889,6769,0
13.096934117000274,6481,4209,0
13.100874012000077,3536,4064,160
13.103833309000038,0,1792,0
13.107749954000155,5377,1968,0
13.110829791000015,3456,2592,0
13.114698792000127,20997,5233,0
13.117803015999925,18804,240,0
13.122024412999963,15603,2192,0
13.126034161000007,19636,3392,4833
13.129065593000178,8097,9890,0
13.13305611800024,14595,1984,2960
13.137046626000028,18756,12018,0
13.141005970000151,16115,1056,0
13.14504376900004,15107,13203,14003
13.148126606999995,11554,2384,0
13.152101163000225,208,2784,0
13.155095905000053,2000,13859,0
13.159064965000198,6353,400,0
13.1620068430002,0,10162,0
13.166028131000076,3072,2736,0
13.169110623000051,1168,2048,1024
13.17298262200029,5457,9218,0
13.176165962000141,6577,3328,0
13.179840967000018,1472,2320,0
13.183897630000047,1200,1696,352
13.186994120000236,0,2800,0
13.190895462000299,6737,2624,0
13.194062782999936,2496,3472,0
13.198235205999936,7169,3120,6193
13.202187531000163,10914,1536,672
13.205295903000206,2064,3568,0
13.209085036000033,2912,1120,672
13.212182300000222,7537,9042,0
13.216252223000083,2224,4241,0
13.220074389000274,12339,11330,0
13.224001381000107,13475,10946,3840
13.227089447000253,0,9170,624
13.23101389400017,4833,14435,1280
13.235779837000337,15667,8562,5889
13.238040273000024,7025,2304,0
13.24180593500023,0,20436,4465
13.245748050000202,4609,7073,0
13.248792159999994,5297,11858,2816
13.252782858000046,9938,52844,11026
13.256805773999986,13875,7425,2288
13.260748697000054,0,14019,0
13.263790064000204,1632,12146,0
13.267764479000107,992,4193,0
13.270762971000295,5233,2736,0
13.274771275000148,17444,1968,528
13.278770201000043,9586,1024,1040
13.281780039000296,0,1120,0
13.285725063999962,9650,1280,0
13.288768734000314,0,1328,0
13.291767831000016,5409,2064,0
13.295742083000277,5297,5281,0
13.29879199700008,1968,544,0
13.302840625000044,5889,2320,0
13.306791446000261,11218,1792,0
13.309855314000288,368,1280,736
13.313845742000012,1504,3056,2576
13.31784492099996,12803,1776,0
13.320846701999926,19380,2960,0
13.324833188999946,3248,7169,0
13.327820943999996,8786,0,3504
13.33176739999999,6577,4305,0
13.335770435000086,592,16676,784
13.338842213000135,176,4529,1840
13.343106326999987,9058,10210,0
13.347091066000303,5441,18340,6449
13.350093804000153,7329,5201,0
13.353915099999995,9458,10594,7777
13.358123945999978,1392,2288,1792
13.362134383000011,13059,23797,0
13.365126893000252,5537,640,0
13.368099204999908,0,3664,0
13.371843768999952,9282,5857,1248
13.37582257000031,12034,5889,0
13.37884605499994,0,768,0
13.381880028000069,0,1136,0
13.385841405000065,7329,6257,1376
13.389819187000285,16,2416,7329
13.39382133800018,5009,9474,7569
13.398076326000137,23397,13059,4465
13.401093144000242,31799,2848,0
13.404996727000253,13523,1520,8370
13.409021955000298,18020,19540,16836
13.41290572700018,45147,12034,20148
13.416994192999937,15059,1136,3744
13.421108356000332,14595,14371,6993
13.424995307000245,21461,3328,9010
13.428922009999951,12547,15363,11010
13.432058941999912,3728,7329,0
13.436221445000228,14179,7761,1280
13.44023005200006,10114,4657,112
13.443245155000113,0,1792,0
13.447058755999933,0,4000,0
13.450274063000052,6561,2048,0
13.454029050999907,8081,9138,0
13.457202953999968,9074,4961,0
13.460087426999962,0,736,0
13.464121500000147,6145,1280,2656
13.468117292999978,10290,1024,912
13.47218735000024,7425,4016,0
13.475305382999977,10674,2272,0
13.479019254999912,736,1616,608
13.483179543000006,112,3872,1424
13.486289758000112,9362,2240,0
13.490290666999954,23557,12034,0
13.493220088000271,28919,9698,0
13.49719951499992,29735,3344,21253
13.501187718999972,37865,3792,4641
13.505246246000297,35608,1552,0
13.508336554999914,2288,1440,0
13.512293256000248,28566,5089,3328
13.516298237000228,34552,2464,12403
13.52031233400021,7601,2256,1792
13.524037746999966,3296,3984,8610
13.5280897800003,13171,14627,7857
13.532005200000185,16,14899,1456
13.535371915000269,1296,3088,2944
13.539356963000046,22101,2816,10658
13.543246262000139,23813,24565,4609
13.547180198000206,3168,11394,9410
13.551192379999975,24101,20629,10226
13.555299625000316,17988,1792,3872
13.559221431999958,11602,992,4753
13.563044342000012,12387,2816,1712
13.567048069000066,2256,8690,6353
13.570361540000249,6929,13267,0
13.573974207999981,336,3840,0
13.578073484000015,32007,19908,25766
13.581233713000074,9218,8161,2800
13.585335252000277,4865,3408,6129
13.589228093000202,0,3840,2912
13.592944983000052,1168,15731,912
13.596194560000185,7937,3248,2496
13.600140547000137,6257,12467,0
13.603232732999913,0,7889,0
13.607130474000314,2192,3040,0
13.610336722000284,6673,2528,0
13.614172255000085,1520,7169,6913
13.618352832000255,28310,3568,15571
13.622226684999987,14179,10498,4401
13.626220555000145,4032,10498,21781
13.630165757000213,28054,16179,7889
13.634021327000028,1536,1200,0
13.637260552000043,11938,2208,5953
13.641170930000044,13683,11698,0
13.644991260000097,8498,1568,0
13.648155708000104,1856,5585,5249
13.652140376000261,22629,6801,2400
13.655982501999915,0,14707,0
13.659134699000333,4593,28134,0
13.663069588000326,5073,10754,0
13.666980256999977,1200,6737,0
13.67006861300024,2480,2768,0
13.67395369499991,7969,4849,8450
13.676968431000205,0,4209,0
13.680876189000173,0,3472,9634
13.683920991999912,1040,6321,1344
13.687857010000243,1904,6897,0
13.692029512000317,4369,5089,5377
13.695197572000325,0,2752,1920
13.699084800000037,0,672,0
13.702173739000045,19524,1584,2016
13.706048763000126,3360,6321,0
13.709052719000283,0,5377,592
13.713130082000134,7729,15699,5793
13.717018063000069,10130,8530,4577
13.72080814500032,9682,5681,0
13.724184746999981,3072,4353,0
13.726992713000072,0,5345,0
13.730989865000083,4337,9490,0
13.73512345500012,25142,1280,464
13.738162680000187,0,23157,2160
13.742176696000115,3664,10514,0
13.746017643999949,28775,1904,0
13.749091317999955,7169,10738,0
13.753250953000133,1792,8802,4000
13.757301910000024,15603,2960,0
13.760160154999994,1072,6401,0
13.764140075000341,1264,21509,0
13.76812275400016,26486,1504,2480
13.771404258000075,18660,3328,0
13.77534951000007,10962,5937,0
13.779154113999994,17092,2064,0
13.782213286000115,44458,2592,0
13.78627595900025,7057,480,0
13.789384960999996,26934,1792,0
13.79317684300031,2224,12130,0
13.797025105000102,9586,3360,0
13.800390140000218,1632,2816,2816
13.804156993000106,7281,1008,0
13.807393345000037,7233,1296,0
13.81130602400026,9234,7329,0
13.81518928000014,11442,1872,0
13.818190294000033,6833,3344,0
13.82218941200017,0,3040,736
13.825271810000231,2416,2304,0
13.829202962000181,5073,1440,2512
13.832261863999975,5889,752,0
13.836205920000339,6897,1392,4817
13.840090636000241,5121,4945,0
13.843191421000029,1536,4016,0
13.847134975000245,1904,4625,0
13.850232303000212,0,10338,1280
13.854151669000203,47387,2928,11026
13.858169819000068,4016,1136,0
13.861349302000235,512,1328,0
13.86524924000014,13683,1296,0
13.86824079500002,7249,5713,0
13.872053275000326,32,4929,0
13.87536572099998,26166,2608,0
13.879137463000006,9634,4865,0
13.88215540300007,3360,2080,0
13.88628048999999,1344,2416,0
13.890072632000283,17732,5105,0
13.893348483999944,7825,4032,0
13.89717672300003,24678,1792,0
13.900441188000059,14595,3328,0
13.90415836000011,5377,5073,0
13.907988709000165,3840,3296,0
13.911046378000265,6737,6913,0
13.915074718000142,25606,12451,0
13.918405834000168,304,1232,768
13.92215183999997,0,3168,0
13.925321451999935,0,1408,0
13.928238684000007,5313,1824,0
13.932189982000182,1456,5377,0
13.936138862999996,9906,2128,0
13.939137572000163,32279,7009,0
13.943016521000118,6449,1584,0
13.946087256000283,23221,2752,0
