time,emg1,emg2,emg3
0.005528325000341283,2640,0,0
0.00933118300008573,3536,0,0
0.012307631000112451,3360,2208,0
0.01630389499996454,1856,1280,0
0.019326405000356317,928,1952,0
0.023338013000284263,3248,2816,0
0.02638569800001278,1088,2944,0
0.030371169000318332,4721,2992,0
0.03339264900023409,5409,2688,0
0.03736386000036873,2288,2000,0
0.04034324100030062,0,1312,0
0.04434314800028005,8097,2000,0
0.04732813600003283,0,2816,0
0.05038438600013251,5377,1792,0
0.05430571700026121,5969,5009,0
0.057347822000338056,640,1808,0
0.061309998000069754,4193,2560,0
0.06527171800007636,5057,2992,0
0.06833635900011359,2352,3616,0
0.07227780500033987,960,1392,0
0.07529442600025504,4145,4561,0
0.07828490500014595,0,384,0
0.08230970900012835,1808,1024,0
0.08532253800012768,3584,2624,0
0.08933200299998134,944,2768,0
0.09235293100027775,8450,3344,0
0.09784091700021236,2960,2640,0
0.09930294300011155,0,848,0
0.10327103899999202,4497,2336,0
0.10635541100009505,2208,3888,0
0.11061964700002136,4016,3104,0
0.11360119400023905,5633,2672,0
0.11763931000041339,256,1696,0
0.12059094200003528,0,1232,0
0.12364366900010282,4561,2896,0
0.12757379699996818,0,4865,0
0.13058499700036919,2544,1792,0
0.13459633600041343,5217,3568,0
0.137623394000002,1376,6401,0
0.1415896570001678,1808,2000,0
0.14466185200035397,4353,1824,0
0.14851629700024205,1360,6497,0
0.15164221300028657,2272,2448,0
0.15543192800032557,5889,3616,0
0.15851078700006838,768,1120,0
0.16264907000004314,4961,3840,0
0.1664803319999919,3040,2048,0
0.16955756100014696,5713,4257,0
0.17366179900000134,6913,1600,0
0.1767063240004063,1904,1680,0
0.1807195070000489,1392,1808,0
0.18360056100027577,2848,1280,0
0.18673772100009955,0,2592,0
0.1906884570003058,6833,3616,0
0.1945425450003313,4016,1520,0
0.19764060600027733,1936,944,0
0.20070539000016652,512,2544,0
0.2046046360001128,4465,3024,0
0.2084198360003029,1136,2784,0
0.21170239900038723,3488,4016,0
0.2155695280002874,4353,2224,0
0.2185826370000541,1392,1872,0
0.22250163500029885,32,2000,0
0.225626774000375,4865,2816,0
0.2296769940003287,1952,3520,0
0.2327957239999705,4016,1056,0
0.23653297200007728,2112,2736,0
0.23963642600028834,1376,1264,0
0.24359512299997732,3856,2480,0
0.24678520500037848,1504,2864,0
0.2507286439999916,3248,3104,0
0.2538363520002349,4657,2128,0
0.2577208010002323,1248,560,0
0.2606869420001203,16,2304,0
0.26470015100039745,4353,2128,0
0.267752954000116,0,2656,0
0.270729995000238,4337,2384,0
0.27479931500010935,6961,2816,0
0.2778043090002029,0,768,0
0.28158286699999735,1408,688,0
0.2848531660001754,7217,1968,0
0.28849926400016557,1536,3680,0
0.29175675600026807,3136,1952,0
0.29575581700009934,4753,2272,0
0.2985976770000889,96,2048,0
0.3025069070004065,512,2992,0
0.30570059700039565,5761,2592,0
0.30957303600007435,4129,3488,0
0.31281520900029136,4865,2592,0
0.3166141900001094,2080,2560,0
0.31966043200009153,176,1792,0
0.3235836100002416,2832,3104,0
0.32682108900007734,880,2192,0
0.330733118000353,3712,3184,0
0.33380574600005275,3328,1056,0
0.3375878370002283,1808,1536,0
0.34067059500011965,1776,2000,0
0.344749960000172,3152,1296,0
0.347683459000109,0,2160,0
0.351637077000305,3248,1792,0
0.3548574610003925,3344,2272,0
0.35847949400022117,784,1024,0
0.361611025000002,656,2592,0
0.3654949850001685,6177,3216,0
0.3685854940003992,1024,2816,0
0.37249846700024136,3248,2528,0
0.37557959400010077,2256,1520,0
0.37941864699996586,0,1024,0
0.3825720730001194,5873,2144,0
0.3863735429999906,3328,2816,0
0.38960069400036446,2544,3280,0
0.39336274100014634,7089,2080,0
0.3963774490002834,1632,1392,0
0.4003466770000159,144,1808,0
0.4035148170000866,3840,1856,0
0.4075254760000462,864,2608,0
0.4105627760000061,4177,3248,0
0.41451896700027646,5121,1424,0
0.41757256000028065,432,2048,0
0.4206487280002875,0,1408,0
0.4245641440002146,10722,2624,0
0.42838445699999284,1152,2304,0
0.43161375800036694,1296,2000,0
0.43562233900001956,2576,1712,0
0.4383984880000753,880,1488,0
0.44252958300012324,1632,1744,0
0.44567103899998983,3840,3024,0
0.44938567500003046,1072,2512,0
0.45259356300039144,6945,3616,0
0.456640439000239,3264,1696,0
0.45959421600036876,0,1600,0
0.4636219470003198,4353,1632,0
0.46671058900028584,1792,1936,0
0.4707532390002598,2272,2736,0
0.47380180900017876,6865,2864,0
0.47776305400020647,1824,1632,0
0.48081493900008354,992,2096,0
0.4846563330002027,9330,0,0
0.4876808300000448,2304,2640,0
0.49176652200003446,4064,2304,0
0.4948648110002978,4161,3296,0
0.4978406840000389,0,1280,0
0.5016383060001317,80,3632,0
0.504761499000324,3936,2544,0
0.5085105940001995,1280,3040,0
0.511780022000039,1856,1792,0
0.5155975830002717,3536,8354,0
0.5185653720000118,256,1728,0
0.5225661520003086,720,4193,0
0.5258676140001626,4913,2208,0
0.5295887890001723,1792,7905,0
0.5328759740000351,8081,2912,0
0.5367865279999933,896,5153,0
0.5395831910000197,0,1280,0
0.5437151940000149,6145,2464,0
0.5468470690002505,1424,2736,0
0.5507698970000092,1776,3280,0
0.5538431750001109,6689,2816,0
0.5576478450002469,1248,1184,0
0.5608436810002786,1984,1552,0
0.564752566000152,6033,6561,0
0.5677517060003083,752,1776,0
0.5716682130000663,2000,2896,0
0.5746882180001194,3216,2048,0
0.5785399080000388,112,5121,0
0.5814137490001485,1712,1984,0
0.5855584170003567,4209,6129,0
0.5884543030001623,2992,1552,0
0.5926547840003877,6353,3248,0
0.5965080850000959,2576,1744,0
0.5996187810001175,1168,2064,0
0.6035950069999672,3856,1632,0
0.6065803680003228,1792,2512,0
0.6106262170001173,2480,2496,0
0.6137531280000985,5425,1616,0
0.6169215970003279,0,720,0
0.6206855130003532,4016,5121,0
0.6245382910001354,5841,1248,0
0.6276451200001247,2816,3216,0
0.6316748809999808,3632,1824,0
0.6346789560002435,4881,2256,0
0.6378003020004144,0,1280,0
0.6416731379999874,144,7233,0
0.6447815920000721,7233,1632,0
0.6486615930002699,1280,7937,0
0.6518242450001708,2064,2480,0
0.6556506790002459,6385,4737,0
0.6586768070001199,768,1504,0
0.6626057590001437,9218,3952,0
0.666489852000268,3792,2368,0
0.6695819800002027,4129,2640,0
0.673464960000274,7857,2976,0
0.6766316370003551,1248,2144,0
0.6804963120002867,304,1552,0
0.6834970400000202,6145,1648,0
0.6864246360000834,0,3120,0
0.6903757930003849,4353,7057,0
0.6934214410002824,4593,2048,0
0.6974037650002174,6113,4433,0
0.7006148630002826,0,2320,0
0.7044093620002059,5537,2208,0
0.707562007999968,0,2352,0
0.7115495140001258,4016,2464,0
0.7146030240000982,4369,2128,0
0.7176055310001175,0,1312,0
0.7214200650000748,176,5681,0
0.7245165389999784,5729,2528,0
0.7284777320001012,4673,5473,0
0.731592792000356,1760,1680,0
0.7356621050003014,4545,2448,0
0.7385211190003247,784,1328,0
0.7425412340003277,7521,3504,0
0.7466002109999863,6609,2832,0
0.7496709340002781,3888,3568,0
0.7535147749999851,7121,2576,0
0.7568115390004095,1968,1504,0
0.7596352200002912,0,256,0
0.7638274690002618,3216,1936,0
0.7667717799999991,992,2416,0
0.7707960820002882,4865,6913,0
0.7739068720002251,4881,1392,0
0.777788270000201,0,5297,0
0.7807348930000444,0,1488,0
0.7839445660001729,5617,1184,0
0.7877174060004108,1648,3360,0
0.7916226670004107,4961,1840,0
0.7947349380001469,3488,2032,0
0.798588545000257,1024,1296,0
0.8017828580000241,1072,1248,0
0.8056234810001115,6129,2224,0
0.8086729010001363,1280,1792,0
0.812560914000187,3264,1600,0
0.8158721280001373,3008,1376,0
0.8197579710003993,0,1008,0
0.8226927870000509,3328,2016,0
0.826635484000235,2816,1984,0
0.8298809520001669,2496,1872,0
0.8336344540002756,8161,3312,0
0.8367382080000425,848,2672,0
0.8406467009999687,1408,1440,0
0.843626587000017,4577,2560,0
0.8476546159999998,1136,2928,0
0.850815096000133,3264,2352,0
0.8546393310002713,6801,9730,0
0.8577275130000999,0,1696,0
0.8616201540003203,1248,1680,0
0.8646882580001147,4449,2416,0
0.868568525000228,1328,3296,0
0.8717628809999951,1904,1536,0
0.8756411730000764,4529,1840,0
0.8786889490002068,112,2240,0
0.88278845800005,352,1568,0
0.8857106890000068,3616,3072,0
0.8896042240003226,976,1840,0
0.8928869680003118,8450,2304,0
0.8967969660002382,2592,1808,0
0.8997900150002351,0,0,0
0.9028606480001145,3408,1552,0
0.906818731000385,2176,5409,0
0.9099170819999927,2592,1776,0
0.913835496000047,8161,7601,0
0.9168499040001734,0,1168,0
0.9197131509999963,0,944,0
0.9236258070000076,4609,4817,0
0.9269055190002291,480,3184,0
0.9306837120002456,6193,6129,0
0.9346096290000787,5265,2608,0
0.9376832699999795,3184,3488,0
0.9415264670001307,1024,1536,0
0.9446085060003497,6737,2624,0
0.9485709470000074,1136,2384,0
0.9516640460001327,3664,2064,0
0.9556688460002079,4193,1792,0
0.958668303000195,1024,1376,0
0.9625671740000143,1008,784,0
0.9656590080003298,4769,2544,0
0.9695623820002766,688,1744,0
0.9726636039999903,5089,2336,0
0.9765034170000035,2048,1392,0
0.9795302540001103,1648,1440,0
0.9834249680002358,3328,1024,0
0.9864563920000364,512,2400,0
0.9903945290002412,2304,2288,0
0.9935680090002279,6081,2304,0
0.9976213990003089,1280,1712,0
1.0006493089999822,0,1584,0
1.0045898640000814,6417,1792,0
1.0076549220002562,2304,2320,0
1.0116696410000259,3104,2672,0
1.0144948580000346,5041,2464,0
1.0184811310000441,496,1904,0
1.021412435000002,1600,1280,0
1.0256947709999622,2576,3840,0
1.0284559430001536,848,1936,0
1.0326665100001264,4353,2464,0
1.0357061470003828,2304,1744,0
1.0396965630002342,224,1344,0
1.0425976880001144,3632,0,0
1.0466655260001971,2880,2720,0
1.0497350600003301,3584,3296,0
1.053604562000146,8081,2704,0
1.056733479000286,624,1456,0
1.0597538430001805,96,992,0
1.0637140880003244,4929,5585,0
1.0668042199999945,1632,2240,0
1.0708717080001406,5857,3856,0
1.074729798000135,6001,1776,0
1.077833338000346,1760,2528,0
1.0816842980002548,2064,1824,0
1.084911865000322,3952,3728,0
1.0879286399999728,0,2704,0
1.0917504660001214,1872,4529,0
1.094983197000147,4273,2912,0
1.0986434410001493,2976,2480,0
1.1018051460000606,0,1792,0
1.1057782660000157,2304,2784,0
1.1086752950000118,2528,3200,0
1.1127132110000275,5441,6401,0
1.1160272600000098,2464,1984,0
1.1198713010003303,3888,2240,0
1.1237396330002412,6017,1904,0
1.1268587870004012,3120,3264,0
1.1307759410001381,1312,1648,0
1.1337160490002134,7393,3328,0
1.1376901940002426,624,2192,0
1.140875072000199,1792,1280,0
1.144665212000291,5889,1312,0
1.1477475470001082,992,2096,0
1.1516739990001952,5249,2640,0
1.1550760490003995,4833,2320,0
1.1585988510000789,48,1360,0
1.1618326740003795,2320,2928,0
1.165783853999983,3696,1856,0
1.168695021000076,1728,3472,0
1.1728125100003126,3328,2608,0
1.175895187000151,3616,4385,0
1.1798197080001955,432,1968,0
1.1829048590002458,1776,2064,0
1.186630735000108,5233,3360,0
1.1899027610002122,3280,2160,0
1.1938227919999918,8450,2144,0
1.196890268000061,0,784,0
1.199957908000215,0,1344,0
1.203831502000412,2720,1856,0
1.206975421000152,1200,2304,0
1.2107299040003454,5377,8434,0
1.2139803280001615,7073,2672,0
1.2177737080000952,4641,4129,0
1.221793854000225,1200,1280,0
1.2249821550003617,7217,2560,0
1.22786945200005,336,1728,0
1.231863911000346,4161,1552,0
1.2356508780003423,4097,1632,0
1.2387720930000796,2400,1632,0
1.2427057540003261,1024,3008,0
1.2456806530003632,3072,2608,0
1.2495689890001813,880,1872,0
1.2526603060000525,4593,2496,0
1.2565846680004142,1024,1872,0
1.2596757700002854,624,1024,0
1.2636560600003577,3856,1456,0
1.2666443510001955,464,3472,0
1.2705640830004086,3264,2592,0
1.273680665000029,7425,1872,0
1.2765856940000049,0,672,0
1.28056103300014,2064,6225,0
1.2835341570003038,4785,1840,0
1.2874424589999762,3632,2656,0
1.2913861290003297,3472,2160,0
1.2946363490000294,6241,2816,0
1.2984040740002456,256,1344,0
1.3016366080000807,3104,3072,0
1.3055659510000623,5233,2816,0
1.3085291360002884,1008,2400,0
1.3126233360003425,3120,1904,0
1.3157347690003007,3488,624,0
1.319633728000099,176,592,0
1.3227021880002212,3632,2384,0
1.326678178000293,2848,1888,0
1.3295271970000613,3488,1776,0
1.3336857100002817,7425,1712,0
1.3367057740001655,2096,1376,0
1.3405883880000147,432,1792,0
1.3437260640002933,6465,2640,0
1.3476890179999828,800,2544,0
1.3507495840003685,2688,2160,0
1.3547276450003665,5713,1616,0
1.357897337000395,192,1744,0
1.3616806830000314,1280,1184,0
1.3649371710002924,6001,1392,0
1.3686303470003622,592,1584,0
1.3717529010000362,800,2464,0
1.375825463000183,2192,1264,0
1.3786721360002048,0,896,0
1.381823421000263,1504,1184,0
1.3857324280002103,2816,9218,0
1.3887234110002282,2512,2816,0
1.3927399930003048,8482,3840,0
1.3967350400002942,3216,1760,0
1.3999007780003012,3136,2336,0
1.403797166000004,2304,1280,0
1.4068993660002889,3552,2720,0
1.4108208790003118,3424,2288,0
1.4138814810003169,6913,1456,0
1.417665868000313,1392,1552,0
1.420919566000066,1104,720,0
1.424882185000115,7169,1984,0
1.4278764320001756,0,1888,0
1.4318218299999899,6065,2096,0
1.4349387390002448,5089,1840,0
1.4386038300003747,256,1200,0
1.4417791710002348,3536,2448,0
1.4457721640001182,7409,1984,0
1.448692007000318,1040,1568,0
1.4527703280000424,2928,2048,0
1.4557808810000097,2304,1440,0
1.459768730000178,256,768,0
1.462900305000403,2864,2256,0
1.4668085100001917,3808,1696,0
1.4698975710002742,2816,2496,0
1.4736983540001347,7585,3680,0
1.4769098620004115,2672,224,0
1.4799340210001901,0,1024,0
1.4838315750002948,8049,4209,0
1.4876327619999756,1248,2256,0
1.4908828830002676,3264,2080,0
1.4947671340000852,5585,1088,0
1.4978634440003589,1680,1584,0
1.501633953000237,864,1792,0
1.5050828340004045,4353,2576,0
1.508584920999965,768,1536,0
1.5117836370000077,4016,2144,0
1.5156828060003136,2288,1968,0
1.5186704210000244,0,1456,0
1.5217886580003324,0,1296,0
1.5258191350003472,5425,2224,0
1.5287166040002376,256,2672,0
1.53287411600013,1584,1648,0
1.5357729690003907,3328,1776,0
1.5387469550000787,0,352,0
1.542677274000198,1856,3280,0
1.5465688520002914,2752,2304,0
1.5496788620002917,3552,4097,0
1.5535941060002187,6353,1264,0
1.5566746300000887,3408,2160,0
1.5597463710000739,32,768,0
1.5636682160002238,3584,7169,0
1.5667560100000628,1456,2304,0
1.5706491700002516,8434,4657,0
1.5735626150003554,5089,768,0
1.5774533450003219,4673,4689,0
1.5805132770001364,0,1344,0
1.5844432190001498,5377,2352,0
1.5874556930002655,1440,1536,0
1.591631960000086,6177,2224,0
1.5946602220001296,2992,2048,0
1.5984476230000837,0,4945,0
1.6017811230003645,256,1728,0
1.6057031400000596,7361,2048,0
1.6085484120003457,272,2656,0
1.6127278060002936,1728,1552,0
1.615712485000131,2544,2304,0
1.6184734160001426,0,1744,0
1.6227395040000374,7473,2592,0
1.6266770250003901,5233,1888,0
1.629741784000089,2592,3072,0
1.6336958710003273,6241,1888,0
1.6367163990003064,2704,2128,0
1.6397663470002044,0,1040,0
1.6437512370002878,4177,4833,0
1.6475929020002695,1040,2304,0
1.6508825570003864,9218,4064,0
1.6546661570000651,7857,1520,0
1.6577056670003003,928,1968,0
1.6609133260003546,0,816,0
1.6648678440001277,7409,2112,0
1.6677567710003132,0,2128,0
1.6716024010002002,2368,1248,0
1.6748955690000003,4305,2848,0
1.6779748600001767,464,880,0
1.681778769000175,5681,3440,0
1.6856576280001718,3184,1456,0
1.6887682169999607,1872,3312,0
1.6928299730002436,2800,2720,0
1.6958840659999623,2816,2032,0
1.6997736990001613,208,1280,0
1.7029338780002945,2288,2752,0
1.706788071000119,7873,1232,0
1.7099192390001008,1792,2928,0
1.7138329000003978,8786,2992,0
1.716807035000329,1520,544,0
1.7207930000004126,848,1280,0
1.7239428830002907,5921,1536,0
1.7276754160002383,512,2592,0
1.730891475000135,3936,2512,0
1.7346874810000372,6497,2736,0
1.7377688200003831,592,1776,0
1.7414851850003288,1840,1968,0
1.7445033190001595,4673,3984,0
1.7484623170003033,0,1536,0
1.7514647520001745,4657,2336,0
1.7554303030001392,6257,1280,0
1.7585108790003687,1280,2096,0
1.7624711280000156,1536,800,0
1.7654985910003234,6209,2784,0
1.7694423530001586,1216,2464,0
1.7726278869999987,5313,1712,0
1.7767235320002328,3088,1440,0
1.7797130260000813,0,1696,0
1.783699555000112,4705,1680,0
1.7867180130001543,3936,1712,0
1.7907110080000166,7073,2800,0
1.7937569700002314,4369,2352,0
1.7967334160002792,0,736,0
1.8006220550000762,816,1072,0
1.8035770860001321,5633,1216,0
1.807501639000293,16,2992,0
1.810548134000328,2768,2384,0
1.8147150940003485,5505,1648,0
1.8176511920000848,1456,832,0
1.8215016020003532,736,1456,0
1.8245400330001758,5969,4465,0
1.8284967010004038,576,1536,0
1.8315517620003448,4497,1056,0
1.8355062970003928,3488,1792,0
1.8384734520000166,864,976,0
1.8424189380002645,1648,2128,0
1.8454790470000262,5329,2000,0
1.849441463000403,1296,1696,0
1.8524535260003177,4913,2768,0
1.8564379320000626,2144,1760,0
1.8594551400001365,0,672,0
1.8625159910002367,2320,1232,0
1.8664957740002137,7009,3328,0
1.8706725460001508,2272,2304,0
1.8736962870002571,7425,2496,0
1.8775312660000054,1040,832,0
1.8806656850001673,512,1056,0
1.8837170620004144,4641,880,0
1.8874505080002564,0,4561,0
1.8907053170000836,2592,2320,0
1.8945575880002252,6513,1840,0
1.89772235800001,1280,1248,0
1.9016740880001635,1888,1360,0
1.9045835490001082,5457,2304,0
1.9084741500000746,1200,5601,0
1.9116547980001997,2048,2576,0
1.9155246780001107,8882,3744,0
1.9186544200001663,64,1072,0
1.9226342560000376,288,5745,0
1.9258286550002595,5425,2160,0
1.9297612450000088,1760,2512,0
1.932755145000101,5889,1328,0
1.9367457660000582,1264,4048,0
1.9399859850000212,928,1616,0
1.9438972410002862,4016,5377,0
1.946844037000119,2832,2544,0
1.950895746000242,8962,4337,0
1.9546497420001288,6161,2192,0
1.9579200310004126,2384,1536,0
1.9617903289999958,512,2048,0
1.9648474110003917,8946,2736,0
1.967803780000395,0,1712,0
1.9717012650003198,4865,1200,0
1.975017016000038,4273,1904,0
1.9789140880002378,3424,3216,0
1.9819166420002148,2336,2832,0
1.985887441000159,7409,4129,0
1.9898069630003192,2304,2288,0
1.9927907920000507,2816,2240,0
1.9968332770004054,3328,1632,0
1.9997729740002796,0,1824,0
2.0029910640000708,5393,1024,0
2.006871107000279,6609,4097,0
2.0107775630003744,2592,2208,0
2.0139284250003584,5809,2272,0
2.0178447940002116,2384,1856,0
2.0208230640000693,1264,1424,0
2.024716515000364,5025,2144,0
2.0277803570002106,1008,1856,0
2.0316880029999993,3840,2048,0
2.0348706330000823,6353,1744,0
2.037820553000074,0,304,0
2.041956804000165,3728,2224,0
2.045694883000124,6513,2304,0
2.0489038079999773,2304,2816,0
2.052849291000257,2544,2208,0
2.055933032000212,1520,2288,0
2.0598054000001866,176,800,0
2.062931967000168,2704,1536,0
2.0667224120002174,4129,1904,0
2.0699462840002525,1344,2304,0
2.073874382000213,7217,1888,0
2.076802055000371,960,1296,0
2.0806135670000003,736,1024,0
2.0839303150000887,5057,2496,0
2.087656743000025,496,2672,0
2.090933657000278,3840,3392,0
2.094887834000019,5777,1696,0
2.097947715000373,2144,1440,0
2.101690654000322,864,944,0
2.1047916580000674,6705,3088,0
2.108585750000202,768,2304,0
2.1117275040001005,5745,3328,0
2.115643438999996,3056,1808,0
2.1187003740001273,1072,1840,0
2.122642165000343,1888,1296,0
2.1257447480002156,4913,1792,0
2.129621645000043,768,2400,0
2.132739240000319,5153,1728,0
2.13658163800028,2576,1424,0
2.139625764000357,960,1968,0
2.143528696999965,3376,1040,0
2.146544802000335,2704,1536,0
2.1504928450003717,7041,3792,0
2.1537095080002473,6481,2064,0
2.1577103910003643,416,704,0
2.160747514000377,1520,1968,0
2.1647495440001876,6689,1840,0
2.167728041000373,0,1136,0
2.1716978040003596,5041,1952,0
2.17476243100009,6049,5201,0
2.1784902300000795,928,1328,0
2.181702270000187,3488,2704,0
2.1858400720002464,4577,1280,0
2.188558046000253,1904,2192,0
2.192763140000352,2752,1760,0
2.195748153000295,2816,2640,0
2.1997529940003915,288,768,0
2.2027998830003526,2016,1792,0
2.206733703000282,4769,2160,0
2.2098049820001506,2144,1024,0
2.2136544009999852,6289,2208,0
2.21684436500027,1408,1392,0
2.220661542000016,0,1328,0
2.2237834960001237,5681,1856,0
2.2278076990000955,912,2736,0
2.2309470039999724,5089,2896,0
2.2346667810002145,6769,2512,0
2.2380250040000647,1696,1280,0
2.241738584000359,1808,2096,0
2.2449962240002606,6097,2128,0
2.2487658270001702,720,1136,0
2.251984237000215,3840,1648,0
2.255742265000208,4097,1776,0
2.258760438000081,160,304,0
2.262678882000273,1888,1056,0
2.2659675190002417,4609,2000,0
2.269888822000212,1280,2352,0
2.2728800220002086,3728,1408,0
2.2768855310000617,3488,1808,0
2.2797686930002783,448,1072,0
2.28385412300031,5009,1632,0
2.2869995519999975,1632,2416,0
2.2909003100003247,2096,1952,0
2.293877306000013,5729,1776,0
2.2977048380003,1232,864,0
2.300961746000212,720,1360,0
2.3046707870003047,4561,2928,0
2.3079548240002623,0,2592,0
2.3117047519999687,1280,944,0
2.314963327999976,5745,2896,0
2.317989948000104,0,1536,0
2.3216997849999643,1552,8834,0
2.3251079030001165,7089,2496,0
2.3288359760003914,1456,5537,0
2.3320226780001576,544,1888,0
2.3359518040001603,2992,6849,0
2.338832876000197,1280,1376,0
2.342917291000049,5313,2352,0
2.3468330840000817,4609,2352,0
2.3498579530000825,2384,3088,0
2.353891080000267,6385,1056,0
2.3568912530004127,2240,1456,0
2.36088778300018,256,720,0
2.3638501320001524,7537,2864,0
2.3669075100001464,0,2048,0
2.3707402590002857,4721,2528,0
2.3738783010003317,5617,1248,0
2.377735858000051,1456,6209,0
2.381000763999964,464,864,0
2.3849357789999885,3840,1936,0
2.3878437650000706,0,2400,0
2.3917041500003506,3344,592,0
2.395009795000078,4353,2544,0
2.3988220410001304,272,1008,0
2.401822037000329,3136,2128,0
2.4056840440002816,6097,1504,0
2.4087565820000236,368,2912,0
2.412634218000221,1616,1136,0
2.415762332000213,3328,2016,0
2.419669294000414,576,1120,0
2.4226926310002455,3680,0,0
2.425811287000215,4177,3216,0
2.429705238000224,1424,5537,0
2.4326903400001356,4801,2128,0
2.4365974740003367,4961,3248,0
2.439628460000222,592,1888,0
2.4435569800002668,9138,3248,0
2.447501492000356,1616,1904,0
2.450703887000145,2976,2816,0
2.4545315180002945,6353,3216,0
2.4577887560003546,1200,768,0
2.461822927000412,608,2112,0
2.4647574939999686,9698,2720,0
2.4685191950002263,224,1328,0
2.4719772430003104,5121,3120,0
2.4755429410001852,3792,1728,0
2.478570650000165,2096,1792,0
2.4815823349999846,688,768,0
2.4855632620001415,10082,5121,0
2.4895326270002442,768,2128,0
2.4925456690002648,4609,1536,0
2.496446687000116,1344,1120,0
2.4995730079999703,256,1488,0
2.5035546410003917,3632,1616,0
2.506578090000403,3072,2816,0
2.5105495080001674,928,2160,0
2.5135198840002886,7457,1840,0
2.5174741970004106,816,1680,0
2.5205336090002675,1904,2048,0
2.5245077650001804,4097,1264,0
2.5275337050002236,1488,2096,0
2.5315181550004127,4129,1808,0
2.534530421999989,3328,1056,0
2.5385080089999974,528,768,0
2.541557192000255,1088,1792,0
2.545529438000358,1840,3072,0
2.548523435000334,176,2816,0
2.552505716000269,1792,1072,0
2.5555977770000027,864,1792,0
2.5585072310000214,0,1536,0
2.562523641000098,256,5489,0
2.5655880990002515,2160,1808,0
2.5695801480001137,1168,5937,0
2.572751905000132,5233,2304,0
2.5768498940001336,6161,4353,0
2.5798807250002938,0,224,0
2.583755569999994,4465,848,0
2.5868755330002386,2640,2544,0
2.5908412320000025,1952,2448,0
2.5935549190003258,7713,3296,0
2.5968458490001467,0,352,0
2.600542721000238,3104,3152,0
2.6047177190002913,5169,1456,0
2.6077267550003853,2048,3504,0
2.61166054000023,2816,2416,0
2.614826613000332,5297,2064,0
2.6177551900000253,0,1024,0
2.6217973300003905,1504,6065,0
2.624822258000222,5345,1392,0
2.6288911579999876,3152,3296,0
2.632835075999992,3216,1936,0
2.6358473029999914,2960,2016,0
2.638936341000317,0,1104,0
2.642956888000299,112,2704,0
2.6460417289999896,4305,1552,0
2.6498836949999713,1392,4753,0
2.6530317820001983,5025,1824,0
2.656951810999999,5985,4177,0
2.6598604150003666,0,768,0
2.663792260000264,3696,2304,0
2.6669082960002015,2224,2304,0
2.6707829050001237,1872,1856,0
2.6740165040000647,7681,2336,0
2.6769546330001504,0,368,0
2.6808982040001865,2816,2464,0
2.6840813900003013,5553,768,0
2.687929591000284,4545,3856,0
2.6916772920003496,2672,2480,0
2.6950215890001346,4641,1376,0
2.697942740000144,976,608,0
2.7017679900000076,5121,3632,0
2.705631750000066,4000,1808,0
2.708771013000387,3104,3120,0
2.7126540980002574,2720,592,0
2.7157737249999627,5713,3744,0
2.7196482480003397,768,1280,0
2.722732439000083,6481,4129,0
2.726556876000359,5377,1728,0
2.7296532960003788,2080,2160,0
2.733552881000378,6737,2096,0
2.736588760000359,3232,2416,0
2.7395782430003237,0,1456,0
2.743528869000329,3536,4529,0
2.746602250000251,272,2400,0
2.750542183000107,912,5169,0
2.7535645820003083,6977,1760,0
2.757579144000374,592,6145,0
2.7605432520003887,752,528,0
2.7645147000002908,6065,1056,0
2.767581744000381,256,1488,0
2.7715137800000775,3056,1840,0
2.7745812050002314,4865,1792,0
2.7785162160002983,224,1536,0
2.781520341000032,768,1600,0
2.785537882999961,4577,2080,0
2.7886008770001354,1808,2288,0
2.79256787300028,2304,592,0
2.7955715890002466,2208,1568,0
2.798840785000266,0,0,0
2.802794388000166,480,1280,0
2.8058342950002952,4817,2992,0
2.8095451389999653,720,3120,0
2.812793076000162,4353,1920,0
2.816884597000353,2288,1280,0
2.8195498869999938,0,1232,0
2.8237917250003193,5121,1008,0
2.8268107850003616,1648,5201,0
2.83080230700034,2720,1424,0
2.8338394570000673,7329,2272,0
2.837775239000166,368,656,0
2.8408720140000696,768,1712,0
2.8445455400001265,6305,1376,0
2.8477324660002523,2544,2784,0
2.8517515910002658,2096,1264,0
2.8547740840003826,9826,2496,0
2.8577924760002134,0,80,0
2.8618627580003704,656,1424,0
2.864992089000225,6113,2304,0
2.868703194000318,256,2832,0
2.8718956980001167,3328,1824,0
2.87584374700009,2912,1328,0
2.87896737400024,0,1168,0
2.8821130260002974,672,2272,0
2.885892853000314,8450,2256,0
2.889905042999999,1328,2288,0
2.8930353780001496,3200,1456,0
2.8967133510000167,2528,2256,0
2.899990555000386,848,960,0
2.9037294500003554,2656,2048,0
2.9068219270002373,2608,3440,0
2.9107901580000544,4865,2208,0
2.9140282860003026,7857,2160,0
2.917927211999995,1552,1328,0
2.920837182000014,544,1168,0
2.924757507000322,4369,1568,0
2.9277840990002915,1392,1808,0
2.9317240210002637,1488,1056,0
2.934885599000154,3328,2064,0
2.937794526000289,0,768,0
2.941745025000273,4129,3568,0
2.945729639000092,5713,1312,0
2.9488289620003343,208,2784,0
2.9518709170001785,928,1280,0
2.9559010410002884,3504,5553,0
2.9587676250002914,0,720,0
2.962756389000333,1184,1376,0
2.9658520350003528,4321,2160,0
2.9696991760001765,1248,3376,0
2.972627296000155,5441,2064,0
2.97662848400023,4737,1616,0
2.9796253250001428,672,896,0
2.9835971310003515,3936,928,0
2.986611589000404,3408,2960,0
2.9905893650002326,4865,2000,0
2.993616418000329,7713,2160,0
2.9975376510001297,1328,1136,0
3.0005314310001268,0,880,0
3.004507983000167,5489,1440,0
3.007555890000276,1296,2016,0
3.011860228000387,4689,1424,0
3.0148414970003614,4673,2064,0
3.0178139690001444,0,1040,0
3.021713486000408,0,7713,0
3.0248419430004105,6593,1488,0
3.0287041680003313,1088,2816,0
3.031678886999998,3280,2192,0
3.0359010550000676,4097,1392,0
3.03860674400039,208,1296,0
3.042827021999983,288,1808,0
3.045909345000382,4449,2304,0
3.049852810000175,2160,3744,0
3.052887216000272,4129,1200,0
3.056853921000311,4080,2928,0
3.059885136000048,560,1248,0
3.063707010000144,2592,288,0
3.0669295600000623,4016,2848,0
3.070776097000362,6369,2560,0
3.0738013260001935,7153,1808,0
3.0778757330003828,1888,4641,0
3.080941049000103,336,1264,0
3.0849671560004026,5089,5553,0
3.087869265000336,768,1312,0
3.091798638,4353,3888,0
3.0950794270002007,3632,1280,0
3.0987910640001246,592,3872,0
3.1019963050002843,288,1184,0
3.105950914999994,3344,2096,0
3.109018739000021,1824,2304,0
3.112908257000072,1952,5313,0
3.1161172350002744,3184,1824,0
3.119938340000317,2992,2960,0
3.1237982830002693,4064,1024,0
3.1268906909999714,3824,3120,0
3.130941950000306,3040,2784,0
3.133898242000214,7169,2912,0
3.13773843700028,1536,528,0
3.141037204999975,672,1296,0
3.1447612380002283,6401,1168,0
3.147879405000367,0,2304,0
3.151101342000402,2400,1600,0
3.1548828780000804,4689,5649,0
3.158065830000396,464,1040,0
3.1619264710002426,1200,5745,0
3.165062358000341,6001,1504,0
3.168898547000026,3472,2992,0
3.1727005810002993,1792,2256,0
3.1760391520001576,6081,2512,0
3.1789358130004075,0,928,0
3.1829714510004123,1264,960,0
3.1859434620000684,6401,2816,0
3.1899053810002442,1264,2352,0
3.1928994760000933,5297,1888,0
3.1967519630002244,2816,1232,0
3.2000282799999695,928,1104,0
3.2038696590002473,2160,1520,0
3.2070939680002084,1920,2400,0
3.2108849280002687,3568,5921,0
3.2141443770001388,7761,2112,0
3.2179959270001746,4417,3152,0
3.22087816200019,0,1552,0
3.224793643000339,6161,1536,0
3.228062260000115,1104,1232,0
3.2319565410002724,4641,2960,0
3.2350298630003635,4689,2064,0
3.239005455000097,2848,2496,0
3.242050902000301,496,2048,0
3.2460234310001397,6001,6401,0
3.249067842000386,0,1952,0
3.2527899040001103,3488,1296,0
3.255953645000318,3584,2448,0
3.2597951730003842,768,1536,0
3.262958665000042,1488,560,0
3.266737603000365,2896,1792,0
3.2699349120002807,928,1696,0
3.273664984000334,7393,2304,0
3.276688078999996,2064,1504,0
3.28054163600018,64,288,0
3.283643000000211,6913,2064,0
3.2875419930001044,368,1872,0
3.2906081700002687,4465,2576,0
3.2945430570002827,6737,1280,0
3.297814434999964,848,1280,0
3.3017571980003595,2256,2032,0
3.3048641039999893,5409,3024,0
3.3078866650002965,0,1728,0
3.3118559610002194,3920,6673,0
3.3148567910002384,3840,1440,0
3.3186091450002095,4145,3088,0
3.3219024750001154,224,1488,0
3.3259165630001917,12547,3904,0
3.329032966000341,0,2048,0
3.3329049390004,3680,1648,0
3.3358408580002106,3280,1936,0
3.3398916400001326,4177,3536,0
3.3429504030000317,4817,2320,0
3.3468854550001197,6161,3872,0
3.350810790000196,1552,1872,0
3.3537087510003403,4016,1808,0
3.3578496670002096,1472,608,0
3.360836264000227,1024,1168,0
3.3648446160000276,4337,1232,0
3.367909341000086,304,2608,0
3.371674503000122,5169,2336,0
3.3747300190002534,6081,0,0
3.3778243589999875,768,928,0
3.3818374239999685,32,2048,0
3.3850747060000685,4465,1808,0
3.3888482190000104,800,2128,0
3.391877759000181,3840,1328,0
3.3960096170003453,4609,2048,0
3.3988975710003615,0,944,0
3.401909760000308,2096,1520,0
3.4057858700002726,5201,6369,0
3.4089181230001486,1888,2432,0
3.4129638040003556,5873,3184,0
3.4167086649999874,2960,1216,0
3.4198265340000944,2576,1840,0
3.423892122000325,2656,768,0
3.427027742000064,4881,3840,0
3.4307447590003903,1216,1632,0
3.4340612390001297,6833,1744,0
3.437786810000034,1376,784,0
3.441022100000282,1056,1696,0
3.4447220050001306,5425,336,0
3.4479294140001002,1888,2976,0
3.4518274320003,4657,1824,0
3.4548878170003263,4913,1712,0
3.4588075750002645,256,1424,0
3.461942891000035,416,1792,0
3.465835793000224,4865,2304,0
3.4689569470001516,848,2832,0
3.472994706999998,2368,1792,0
3.476054187000045,3120,0,0
3.479003013000238,1872,1584,0
3.4830706259999715,3024,4016,0
3.486034540000219,5345,2432,0
3.4898292070001844,2656,3088,0
3.4938919280002665,3088,1312,0
3.497050307000336,3824,2272,0
3.500898908000181,848,1984,0
3.503813578000063,6097,2080,0
3.507803951000369,528,2096,0
3.5110441990000254,6753,3328,0
3.5150133520000963,4305,3376,0
3.517935795000085,1792,1360,0
3.52184596699999,1712,1568,0
3.5249560180000117,6145,1488,0
3.5288218100004087,1376,2512,0
3.531935214999976,2304,1840,0
3.535964774000149,4097,928,0
3.5388916680003604,1216,848,0
3.543006625000089,1072,880,0
3.545959311000388,5633,1952,0
3.549784075000389,2240,2592,0
3.5528591390002475,3712,1696,0
3.5566784350003218,0,1072,0
3.5597235580003144,0,592,0
3.562828752000314,1792,2672,0
3.566716961000111,6193,2032,0
3.56983613400007,4865,2656,0
3.5738472730004105,7697,1280,0
3.576827706000131,2816,1824,0
3.580735193000237,1520,7505,0
3.5837793919999967,3568,2112,0
3.587645800000246,3168,2928,0
3.5915435310002977,3872,2528,0
3.5946261470003265,5697,3072,0
3.598673649000375,1792,1392,0
3.601948710000215,768,1744,0
3.6059185630001593,5265,2224,0
3.6086420500000713,768,2496,0
3.6129052520000187,2592,784,0
3.615870463000192,5057,3984,0
3.6198298730000715,1168,1792,0
3.6229231000002073,1632,1504,0
3.626837214000261,3376,3168,0
3.6299532110001564,2096,2832,0
3.633941595000124,4209,1232,0
3.63660957600041,3408,1600,0
3.6408406670002478,496,592,0
3.6438571940002475,2416,1632,0
3.647832266000023,1024,2544,0
3.6508925160001127,3856,2000,0
3.65474305700036,6769,1744,0
3.657843072000105,2288,784,0
3.660907507000047,0,1392,0
3.664790235000055,8946,2352,0
3.6679984600000353,624,1632,0
3.671884563000276,5857,3472,0
3.675819563999994,4353,2320,0
3.6790438530001666,1184,1792,0
3.6829548499999873,1040,944,0
3.6858536770000683,7233,2272,0
3.6899624689999655,848,1344,0
3.6931034420003925,4881,2656,0
3.6968158380000204,2464,512,0
3.699956499000109,3040,1856,0
3.703806299000007,3632,1280,0
3.7070850530003554,3328,3008,0
3.7109139180001876,1408,2784,0
3.7140132970002924,7377,2816,0
3.717977243000405,1296,1312,0
3.7208998670002984,624,1280,0
3.724899505000394,3584,2048,0
3.727817234000213,16,1424,0
3.7317986830003065,4177,1312,0
3.7350172999999813,5601,2896,0
3.738981542000147,560,1712,0
3.741950318000363,1552,2064,0
3.746007705000011,5377,2384,0
3.749076193000292,304,3120,0
3.7529009760000918,2016,1296,0
3.755985917000089,4657,2912,0
3.759872953000013,816,1792,0
3.7628468860002613,784,1664,0
3.7670079800000167,5489,2176,0
3.7699686590003694,3440,2336,0
3.773826745000406,4321,2480,0
3.7769894650000424,3408,1824,0
3.7808465470002375,0,1312,0
3.7839738490001764,3136,2288,0
3.7870059140000194,528,1856,0
3.7909390360000543,7345,2816,0
3.794893759000388,10130,2208,0
3.7981360110002242,1440,1328,0
3.801849869000307,528,528,0
3.804993540000396,6817,3104,0
3.808939147000274,336,2256,0
3.8118843070001276,3856,2496,0
3.815790264000043,4689,1424,0
3.8190633180001896,1280,976,0
3.822931076000259,2928,1808,0
3.825953325000228,5521,1792,0
3.8298824800003786,3120,2624,0
3.8329653490000055,2816,2256,0
3.836794941000335,3104,2304,0
3.8401405610002257,976,1008,0
3.8439350360004028,3328,1184,0
3.846893766999983,3520,2048,0
3.8508006100000784,2016,1792,0
3.853865987000063,6641,1088,0
3.857820699000058,2528,1744,0
3.8608780500003377,0,1280,0
3.8647808680002527,3328,1024,0
3.867875230000209,1360,2384,0
3.8717304930000864,2816,2480,0
3.87476058700031,3488,1024,0
3.8786557090002134,0,2960,0
3.8816505190002317,432,1680,0
3.8856080650002696,5153,2176,0
3.8886607399999775,1360,2384,0
3.8928340590000516,1200,928,0
3.8959448250002424,4657,2576,0
3.899951983000392,480,1200,0
3.90286813900002,800,3008,0
3.9069248570003765,5729,2080,0
3.9099712530000943,4529,3920,0
3.913767287000155,5329,2192,0
3.9168695860003027,3088,1696,0
3.919760150000002,0,512,0
3.9237210320002305,1536,720,0
3.9269523740003933,3344,1360,0
3.930878923000364,5057,3072,0
3.933657035000124,8322,2640,0
3.93791125000007,2048,6977,0
3.940993883000374,320,352,0
3.9449335480003356,5137,1568,0
3.947949780000272,0,2336,0
3.95180568700016,4113,1168,0
3.954970974000389,5329,2480,0
3.9580478790003326,0,752,0
3.961858683000173,1120,2624,0
3.9651080140001795,6577,1744,0
3.968920238999999,0,4641,0
3.9719857710001634,4016,1040,0
3.976069187000121,3600,912,0
3.9789445180003895,0,624,0
3.98196140500022,1232,944,0
3.98596796000038,3680,2048,0
3.9890282060000573,816,3056,0
3.992949998000313,2512,1072,0
3.996185455000159,1392,1680,0
3.9999096600004123,48,3264,0
4.003043791999971,1744,1200,0
4.006821913000294,4032,1536,0
4.009901439000259,2560,2656,0
4.013825550000092,6161,3072,0
4.016938986000241,1696,1280,0
4.020875897000224,5553,4048,0
4.024756935000369,3632,1888,0
4.027847308000219,3584,2080,0
4.0317327249999835,4545,1520,0
4.035062126000412,5713,1536,0
4.038872790000369,944,1104,0
4.041901894000148,2816,1504,0
4.0458930820000205,7425,2272,0
4.049104298000202,752,1568,0
4.052895135000199,1600,1296,0
4.056006684000295,4657,2608,0
4.0590326280002955,0,1072,0
4.062930793000305,160,4449,0
4.066187029000048,4257,1008,0
4.069976380000298,4129,4689,0
4.073889819000215,3120,1968,0
4.077122025000335,4865,3232,0
4.080129596000006,0,704,0
4.084031728000355,2848,848,0
4.0871192090003206,5217,1696,0
4.090951204000248,4048,2048,0
4.094189419000031,7825,2816,0
4.097178917000292,0,864,0
4.10095471700015,2832,3136,0
4.10400109200009,5969,576,0
4.108117459000368,4273,2768,0
4.111870316000022,5425,2832,0
4.115035125000304,4497,1936,0
4.118013907000204,0,1840,0
4.12189091800019,1296,1904,0
4.125102147000234,6913,2064,0
4.129109916000289,6497,5649,0
4.132057834000079,3408,1456,0
4.136041078000289,5985,2640,0
4.139858650000406,1792,1232,0
4.143002574000093,1424,2640,0
4.146795839000333,4209,2064,0
4.150020017000315,1344,1728,0
4.153819758000282,4129,992,0
4.1569080770000255,3696,2304,0
4.16080722300012,752,1632,0
4.163878188000126,6417,1200,0
4.167696748000253,864,2368,0
4.17080743500037,3584,2048,0
4.174696291000146,8754,2960,0
4.177707726000335,3328,1568,0
4.181590286000301,256,1024,0
4.184859254999992,5137,1856,0
4.188917832000243,1312,2048,0
4.191894183000386,2544,928,0
4.195976691000396,3856,1936,0
4.198986275000152,0,1648,0
4.201750408000407,512,2240,0
4.205763704000219,9442,2848,0
4.209891261000394,1008,1920,0
4.21299388100033,3264,2496,0
4.216957467000157,2960,2128,0
4.219735551000213,768,928,0
4.223001060000115,3008,1520,0
4.2269515120001415,6705,4097,0
4.2298714220000875,768,1200,0
4.233862491000309,6689,3152,0
4.237658254000053,2704,1280,0
4.240691626000171,880,672,0
4.244002647000343,4161,1792,0
4.2478815740000755,4209,4625,0
4.251731076000397,3488,2144,0
4.254972411000381,7441,2064,0
4.257986021000306,0,1264,0
4.261856810000154,848,768,0
4.265049040000122,4625,1904,0
4.268879685000229,0,1792,0
4.271922358000211,6465,2448,0
4.276063608000186,5073,2832,0
4.279000576000271,1296,1296,0
4.28302108600019,1520,816,0
4.286028444000294,6177,1536,0
4.289866900000106,800,1696,0
4.293133904000115,3264,1712,0
4.296846825000102,3872,2048,0
4.299982763000116,1024,1744,0
4.303813179000372,1472,2768,0
4.307145276000028,3408,1824,0
4.310876329000166,1632,3376,0
4.3141824660001475,7425,1792,0
4.31799847900038,1792,1296,0
4.320960537000246,416,1936,0
4.324991543000124,3696,768,0
4.3279394830001365,1024,2864,0
4.33193110000002,3712,1360,0
4.335190387000239,6225,1792,0
4.338937997000357,0,5825,0
4.341986605000329,1632,2592,0
4.346095604000311,5201,2016,0
4.348995176000244,1136,1792,0
4.352917908000109,3072,704,0
4.356172968999999,4545,2048,0
4.359833191000234,576,1280,0
4.363169044000188,544,832,0
4.366955986999983,5649,1888,0
4.369961899000373,1280,2352,0
4.374064417000227,5505,1424,0
4.377159674000268,2288,1296,0
4.3810117420002825,592,944,0
4.384191481000016,6065,2544,0
4.387896635000288,816,1568,0
4.391144926000379,4353,3040,0
4.395005527000194,7457,2016,0
4.39804881200007,1888,1328,0
4.401860940999995,288,816,0
4.404967046000365,9282,2384,0
4.407984491000207,0,2672,0
4.411870001000352,3408,1168,0
4.415085919000376,5793,1552,0
4.4188102600001,0,5857,0
4.421939051000209,272,1488,0
4.426084258000174,8530,2224,0
4.428980632000275,16,1440,0
4.433032572000229,2912,1872,0
4.435940242000015,4433,1520,0
4.439799036000295,816,1824,0
4.442986244000167,1936,2304,0
4.4466996040000595,4321,320,0
4.449911968000379,1312,2048,0
4.453803474000324,2864,704,0
4.456909980000091,5665,2208,0
4.460802381000121,256,2016,0
4.463781089000349,7153,2608,0
4.466793338000116,368,1872,0
4.4707606800002395,5601,3744,0
4.474672043000282,8418,2272,0
4.477671498000291,2608,2096,0
4.481786017000104,1056,1200,0
4.484904018000179,8274,1584,0
4.488988427000095,416,2448,0
4.491870257000301,3408,2736,0
4.495923902000413,4961,2048,0
4.499000244000399,0,720,0
4.501852715000041,0,1760,0
4.505898421999973,7905,1584,0
4.50906395300035,144,2400,0
4.512974398000097,3136,1328,0
4.515887631000169,4097,1504,0
4.519675891000134,768,2304,0
4.5230026470003395,2208,1792,0
4.52668854500007,3088,1376,0
4.529994990999967,1680,2080,0
4.533916754000074,5793,1584,0
4.536883506000322,2016,2256,0
4.5410112680001475,1520,1792,0
4.544047734000287,6513,1712,0
4.548099862000072,592,4897,0
4.551059910000276,3072,1744,0
4.55495275300018,7425,4064,0
4.558037342000262,0,768,0
4.561919910000142,3376,1392,0
4.5650695180002,5105,1392,0
4.568902306000382,400,2048,0
4.571903057000327,3936,2448,0
4.576052434000303,3760,1712,0
4.579116220000287,768,880,0
4.583065383000303,1312,1312,0
4.586008564000167,5169,3040,0
4.590100554000401,1296,2624,0
4.593089083999985,4097,1600,0
4.597037490000275,2976,1648,0
4.6002117230000295,784,1776,0
4.6039482290002525,4161,1536,0
4.606960701000389,2848,2544,0
4.61110765300009,1808,1584,0
4.6141007320002245,8097,2384,0
4.617979058000401,1280,5553,0
4.621035995000057,0,1024,0
4.625011473000086,4513,1312,0
4.6279633510002895,96,2384,0
4.631842652000159,2656,1952,0
4.634956287000023,6129,1840,0
4.63907547000008,1024,1568,0
4.641940262000389,0,1536,0
4.645941581999978,6241,2592,0
4.649052703000052,3296,4305,0
4.652955758000189,3744,1792,0
4.656037515000207,5537,1888,0
4.659033758000078,0,1456,0
4.66301694699996,2304,7425,0
4.6662451000001965,7441,1888,0
4.669924877000085,5681,4064,0
4.673914135000359,4641,1024,0
4.6769223400001465,2672,2144,0
4.680061330000171,0,1280,0
4.684103847000188,2400,928,0
4.687023147000218,2480,2144,0
4.691021768000155,2720,1296,0
4.694200032000026,8418,1792,0
4.698113811999974,256,4817,0
4.701210483000068,0,1328,0
4.704918394000288,4417,2000,0
4.708240706000197,1248,2128,0
4.711913926000307,3136,2128,0
4.715036439000414,5041,2144,0
4.7181346030001805,752,0,0
4.721955663000244,3152,3536,0
4.72509813500028,7441,160,0
4.7290039220001745,4545,3328,0
4.732791956000256,1552,1072,0
4.735935382000207,5313,2624,0
4.738938712000163,0,1424,0
4.742851605000396,256,2352,0
4.745917292000286,7377,2160,0
4.74984105700014,1248,2288,0
4.752959689000363,1440,2528,0
4.756872944000406,3104,3360,0
4.759963384000002,1168,704,0
4.763835466000273,2896,7953,0
4.766818276000322,3200,1952,0
4.771763776000171,6913,4369,0
4.7747180540000045,7025,1376,0
4.777766425000209,2816,3712,0
4.780762172000323,0,944,0
4.784734313000172,4129,2240,0
4.787655344000086,880,2320,0
4.791705145000378,3584,3376,0
4.794786891000058,4641,1312,0
4.798737317000359,448,1136,0
4.801747088000411,1904,1232,0
4.805641029000071,3584,3504,0
4.8087505230000716,0,2480,0
4.8127159220002795,2480,2128,0
4.8157353040001,3056,1296,0
4.8187454950002575,0,784,0
4.822661108000375,1648,6481,0
4.825685665000037,4353,1568,0
4.829663495000204,2976,5393,0
4.8336408950003715,2352,1024,0
4.836672551999982,2960,1872,0
4.839682343000277,0,1200,0
4.843656148000264,752,48,0
4.846691429000202,4721,2832,0
4.850671441000031,3168,1792,0
4.853651717000048,6145,2816,0
4.857656239000335,1456,880,0
4.860668753000027,480,2032,0
4.864649608000036,4097,1520,0
4.867788468000072,1312,2736,0
4.8718630080002185,2992,1040,0
4.8748716210002385,5409,1296,0
4.877695078000215,0,768,0
4.881810303000293,4881,3760,0
4.885918447000222,5889,2000,0
4.889071478000005,1808,1888,0
4.892973748000259,2368,1712,0
4.896010252999986,3728,2128,0
4.898945835000177,0,0,0
4.902749340000355,3584,1472,0
4.906058385000051,4209,1648,0
4.909934911000164,0,3840,0
4.913021842000035,4881,3328,0
4.916864495000027,3328,2368,0
4.919890131000102,0,1008,0
4.923034709000149,1088,976,0
4.926913434000198,2256,2768,0
4.930100622000282,0,1888,0
4.9339366460003475,5137,2768,0
4.936990324000362,3040,2224,0
4.941018269000324,480,496,0
4.943970063000052,4129,2848,0
4.948052905000168,3168,2016,0
4.951142600000367,2608,2800,0
4.954951307000101,8450,1984,0
4.958219396000004,1632,1216,0
4.961961485000302,1328,1072,0
4.965065483000217,3760,2304,0
4.968981866000377,272,2336,0
4.971924131000378,5361,2080,0
4.976064365000184,6417,2304,0
4.979177475000142,160,1200,0
4.982929600000261,176,928,0
4.986037209000187,5665,2384,0
4.99008571100012,1520,2208,0
4.993027705000259,2304,1888,0
4.997101052000289,2272,2032,0
5.000181834000159,768,1024,0
5.003887969000061,1392,1360,0
5.006960757000343,2384,2160,0
5.010993363000125,4561,2160,0
5.014073816000291,5809,2384,0
5.017962269000236,2336,6833,0
5.0209960450001745,112,1232,0
5.024990105000143,3280,5521,0
5.028048086000126,1312,2096,0
5.032017430999986,4401,3984,0
5.03582152800027,5809,1744,0
5.038925415999984,3792,2304,0
5.042839375000312,2208,2560,0
5.045908142000371,4545,1808,0
5.048860517000321,0,2352,0
5.052809334000358,3280,6497,0
5.0558058760002496,3072,1504,0
5.059720066000409,3744,2560,0
5.063683638000384,1552,1248,0
5.0669284880000305,6225,3520,0
5.070906044000367,976,2448,0
5.074062521000087,7569,2912,0
5.078035817999989,2272,768,0
5.080718652000087,2800,2656,0
5.08497146100035,3600,1248,0
5.0879654110003685,1984,3264,0
5.091899824000393,2656,2592,0
5.095009761000256,5889,2656,0
5.099077454000053,1280,608,0
5.101806883000336,0,1280,0
5.104890517000058,3536,1696,0
5.108944091000012,5281,4673,0
5.112962774000152,3760,1456,0
5.116051754000182,4673,3232,0
5.118918678000227,0,1456,0
5.123025201000019,800,2128,0
5.126007351000226,4449,1520,0
5.129903283000203,1536,2128,0
5.133176576000096,3328,1024,0
5.136995955000202,1888,6993,0
5.140108185000372,192,640,0
5.14416380900002,3920,976,0
5.147251221000261,2304,2080,0
5.1510311730003195,2384,3840,0
5.15408526300007,8450,2304,0
5.158177658000113,2576,5841,0
5.161060190000171,0,688,0
5.165015375000166,4465,2912,0
5.168078552000225,2304,2480,0
5.171919749000153,4625,2768,0
5.175226845999987,5457,4353,0
5.179154467999979,1152,1744,48
5.1820613120003145,912,2400,0
5.185962841000219,3536,1072,0
5.189221438000004,0,2016,0
5.193138738000016,2064,2464,0
5.196113724000043,1888,2544,0
5.200104894000106,256,1360,0
5.203180375000102,624,1296,0
5.206965352000225,4977,2432,0
5.210194397000123,912,4497,0
5.214008250999996,5873,1536,0
5.217083800000182,576,1808,0
5.2202017650001835,0,1104,0
5.2240203680003106,784,7633,0
5.227132809000068,1328,1696,0
5.231063316000018,1024,2368,0
5.2341446590003216,8690,2640,0
5.2380638170002385,5889,5073,0
5.241130283000075,512,1792,0
5.245032044000254,2560,6641,0
5.248351659000036,1280,1728,0
5.2519023580002795,10514,3248,0
5.2559834440003215,9314,1392,0
5.259221341000284,5377,1760,0
5.263132263999978,304,1792,0
5.2661653430000115,12963,1312,0
5.269998945000225,3088,3376,0
5.2732293000003665,3696,1584,0
5.277169914000297,12050,2512,0
5.280291056000351,3280,2256,0
5.284238885000377,15827,3840,1712
5.288128184000016,400,6657,0
5.291119205000086,1488,2048,0
5.295112853000319,10658,4193,416
5.299011341000096,2352,1904,0
5.302041488000214,176,1280,0
5.305973935000111,3152,2512,0
5.30905160400016,544,4465,0
5.312970605000373,4897,6369,0
5.316054648000318,11954,1696,0
5.319942138999977,5009,1392,320
5.323832094000409,1456,2416,0
5.326969953000116,16227,3328,0
5.330844936000176,6257,1552,0
5.333953121000377,3472,3344,0
5.337874999000178,416,1232,0
5.340940531000342,944,240,0
5.344803075000073,1264,1744,0
5.347882616000334,6913,3136,0
5.3517240969999875,7169,1584,0
5.354865645000245,3248,3904,0
5.358734363000167,1792,1024,0
5.361738443000377,912,768,0
5.3659531010002866,3168,1104,0
5.368944869000188,2352,1904,0
5.372960849000265,3152,2992,0
5.375996107999981,13539,1904,16
5.3800233910001225,14083,5873,2400
5.383940293000251,2048,1232,0
5.38700450100032,14435,944,0
5.391037250000409,6433,1488,0
5.393993022000359,768,2016,0
5.39804911300007,2272,13667,5121
5.401784127000155,624,880,0
5.404779885000153,2048,2192,0
5.408913382000264,112,1552,0
5.4118116100003135,3168,2480,0
5.414909423000154,80,3344,0
5.418862336000075,55053,4353,0
5.423012739000114,2112,224,0
5.426086639999994,15603,3632,0
5.430199935000019,1296,2720,4369
5.434056348000013,34296,2816,3264
5.437238633000106,9762,2800,0
5.441166133000024,5553,1792,0
5.444958747000328,22773,2656,0
5.448252214000149,65535,4849,0
5.452044556000146,18692,6401,1328
5.4561243960001775,20228,4177,0
5.45923037700004,6033,1024,768
5.463036508000187,7713,2832,0
5.467054746000031,5473,5665,1248
5.4701054890001615,784,5121,4097
5.473986248000074,4465,6737,416
5.4781939970002895,7937,5473,0
5.481233417000112,3744,4097,0
5.484972583000399,5313,944,0
5.488224309000088,19460,4064,0
5.4920002140002,31127,2544,1328
5.496066395000071,3472,992,768
5.499908334000338,13491,1584,2336
5.502983502000006,23301,1856,0
5.507203175000086,34344,2672,0
5.510305745000096,14307,2304,0
5.5139845410003545,8370,6705,0
5.518003687000146,8594,1488,0
5.521040674000233,11410,1680,320
5.525011602000177,13811,0,0
5.528174227000363,8017,1776,0
5.532038043000284,3328,3296,0
5.536008739000408,13971,1056,1840
5.540096608000113,33080,5105,1904
5.543117049000102,8690,5889,0
5.5471592940002665,19796,1056,0
5.551010367000345,5841,3072,1136
5.554273663999993,7185,4465,2336
5.558291537000059,5201,768,6225
5.5620115599999735,12851,1104,0
5.565135328999986,27686,5425,0
5.569071484000233,3872,1680,0
5.5720599060000495,2512,2752,0
5.576266451000265,63439,1056,1024
5.580228261000229,13363,5473,560
5.583861105000324,31831,3248,0
5.587112574999992,30711,2416,0
5.591176787000222,3072,256,0
5.594267880000189,2304,2080,0
5.5979378670003825,2160,2000,0
5.601316665000013,7425,3776,0
5.6049291829999675,928,880,0
5.608132831000148,24437,1600,0
5.612004442000398,2016,5889,0
5.615137681000306,13299,2352,0
5.619099006000397,21477,3552,0
5.62296828000035,21797,6881,0
5.626057838000179,16099,1792,0
5.630018330999974,22837,5857,0
5.633113917000173,4257,1840,0
5.63707877700017,28374,6705,528
5.640977644000031,2816,0,11010
5.644870910999998,4241,912,5889
5.64790718300037,21173,1440,992
5.651848927000174,15283,6929,0
5.6558124600001065,16307,1024,0
5.65901975900033,4016,0,0
5.661859030000414,5009,864,0
5.666061099000217,7937,1472,0
5.66998387600006,29239,1888,0
5.673103806000199,14003,960,1392
5.677066046000164,35656,3328,0
5.680970844000058,27910,1104,0
5.684025245000157,10498,5585,0
5.68805082300014,1520,1568,0
5.691113185000177,34904,6401,0
5.695073313000194,28118,4337,6497
5.699069907000194,9458,2320,4433
5.703020373000072,24069,3056,0
5.7061198149999655,48,1200,0
5.710077509000257,11986,1296,6001
5.713941152000189,35848,1488,4385
5.7171603310002865,24886,5233,0
5.721126571000241,39801,5073,13571
5.7250523510001585,7425,5073,0
5.728891181000108,21205,3296,0
5.731999546000225,5889,3568,0
5.735958263000157,2816,5377,0
5.739201005000268,10802,2288,0
5.743110696000258,21941,3840,0
5.746235132000038,22293,3536,0
5.750166301000263,15107,4753,0
5.753978877999998,18244,1648,0
5.75706080000009,10818,2640,0
5.761000062000221,1280,384,1104
5.765072690000125,8097,1328,6593
5.768183432000114,1312,14499,0
5.772117840000192,17428,14675,0
5.776225973000237,688,5985,3024
5.780082982000295,10418,22277,11762
5.784210883000014,18100,5121,4833
5.787121866000234,2016,1328,0
5.791136666000057,11730,1600,96
5.795013454000127,3136,5649,0
5.798215110000001,21765,1392,5793
5.802114778000032,9618,2048,1056
5.8062301510003635,15795,2704,0
5.810189701000127,6577,1904,1712
5.813255362000291,8498,1792,0
5.817046237000341,1344,4865,0
5.820012463000239,0,2384,0
5.823306073000367,0,2096,0
5.827069948000371,5985,224,0
5.830160628000158,2528,976,3664
5.834205209000174,5553,2816,0
5.838181311999961,3024,1248,0
5.841074632000073,2048,2480,0
5.845088405000297,1280,1344,0
5.848218612999972,256,2528,736
5.852087105999999,6961,3792,1712
5.85622744200009,4193,2848,10258
5.859283966000021,0,2384,0
5.863215765000405,560,5393,5217
5.86708681600021,28534,27398,9250
5.8711089930002345,5297,3216,7249
5.874196674000359,9618,4865,4913
5.878123119000065,16211,6913,8626
5.881998317000125,0,10274,0
5.885853510000288,30903,1280,4561
5.889290513000105,21925,6993,0
5.893241762000343,6209,6353,7217
5.897219938000035,18804,6897,2464
5.900085834000038,0,1184,0
5.904055468000024,30711,11250,3168
5.907985063000069,10594,23893,0
5.911052391000339,1680,1616,0
5.915046357000392,15443,7633,0
5.918845455000337,6321,2048,0
5.921982243000002,4241,1680,0
5.925915024000005,5969,1632,0
5.928995450999992,256,2304,0
5.932911168000373,3328,1488,0
5.93596507600023,7025,3376,0
5.9389269180001065,80,608,0
5.942811218000315,448,8161,0
5.945854082000096,7409,928,0
5.949777285999971,0,1760,2896
5.9528221530003975,784,512,544
5.956921971000156,0,6417,2976
5.959898337000141,0,7681,0
5.963921481000398,336,2464,672
5.967107099000259,4897,1792,0
5.970928705999995,8498,1056,0
5.974903781000194,5169,12210,0
5.977972192000379,4609,2320,7217
5.981775311000092,15203,5057,10274
5.985817731000225,18324,3568,0
5.990022979000059,16371,10066,5489
5.993074151000201,17076,9746,0
5.997046696000325,4785,6033,0
6.001014124999983,9986,2112,0
6.004085265000413,39289,22453,928
6.008013527000003,15891,7953,0
6.011911821000012,6433,5121,0
6.015127164000205,3232,1712,1120
6.019108072000108,256,2864,0
6.022085895000146,0,2640,2160
6.026162946000113,3472,8946,0
6.029055638000045,1920,800,0
6.033206320000318,7153,1264,0
6.036196838000251,5841,1200,0
6.040192647000367,6417,5425,0
6.044122028000402,11682,3216,0
6.047123193000061,2032,1072,0
6.051227557000402,17588,2448,2992
6.0551711600001,27766,3664,0
6.058125819999987,23045,1392,0
6.062216265000188,21285,176,256
6.065193265000289,4641,544,0
6.069123946000218,4817,5121,0
6.073165373000393,12339,2352,0
6.076264024000011,17780,5457,1872
6.080063400000199,0,7857,4032
6.08420296300028,19812,5025,2784
6.088242134000211,4465,14595,4465
6.092065767000349,8866,19940,19956
6.096032623000156,8354,1712,1456
6.099063725000178,2080,7937,0
6.102128852000078,0,14867,0
6.106216912000036,1088,5377,0
6.109957577000387,12819,5329,0
6.113261527000304,8402,1952,0
6.11627386400005,0,2016,0
6.119998037000187,1648,4961,0
6.123265178000111,0,720,0
6.127162371000395,2416,1040,0
6.130129220000072,3040,2544,0
6.134061460000339,4353,2816,0
6.1371138020003855,8177,624,752
6.141105229000004,4016,8322,0
6.144309073000386,2112,1600,0
6.148230555000282,3328,3328,1072
6.152025785000205,4961,432,1792
6.156122213000344,864,768,2896
6.15922300200009,608,3680,0
6.162080610999965,768,1248,0
6.1662681650000195,14515,4497,2528
6.170069715000409,6353,2848,1040
6.173989489000178,10194,9826,2048
6.178050238000196,10322,688,5169
6.182028174000152,14003,16035,14259
6.185210460000235,13299,4945,0
6.189228790000016,3440,6161,0
6.193188893000297,26566,10722,0
6.196268072000294,2912,912,0
6.2001024630003485,11746,3104,624
6.203945211000246,21237,1248,0
6.206998919000398,8418,1536,0
6.210957172000235,1296,3104,416
6.2149683990000995,4673,1232,704
6.217986697000015,11122,1280,0
6.221004193000226,0,944,0
6.224934862000282,11234,2512,1584
6.228839705000155,0,3328,0
6.231840126000407,4721,3328,0
6.235858717000156,9554,1168,1184
6.239128186000016,8786,3728,0
6.243150336000326,10418,5825,0
6.247130707999986,5633,7281,0
6.250155237000399,5153,3648,5377
6.2540844810000635,0,1312,0
6.257136688000173,656,7665,0
6.2610487930001,15619,7713,0
6.264043860000129,17300,832,0
6.268060137000248,12371,1584,0
6.271165920000385,65535,3760,0
6.275114309000401,2176,2304,0
6.278979310000068,10658,3312,0
6.281925157000387,12274,4177,0
6.285922142000345,720,5073,0
6.2891285330001665,3824,4609,0
6.293125118000262,15107,12210,0
6.296107183000004,3120,5681,0
6.299934615999973,2816,1792,0
6.303955117999976,17780,5809,0
6.307122798000364,1280,2816,0
6.311102731000119,5089,3680,0
6.314144339999984,9570,1328,0
6.317888879000293,8626,3840,0
6.3208266640003785,1248,1280,0
6.324842838000222,2480,5393,0
6.327844982999977,880,928,0
6.33183563700004,1888,2976,2160
6.335816272000102,4881,3312,496
6.338858313000401,17732,7681,0
6.3428490260002945,21365,5009,4385
6.346828820000155,19316,1024,0
6.349854776000029,112,576,0
6.3538258190001216,416,1744,272
6.357813079000152,3072,2064,1280
6.360827478000374,0,5633,0
6.364838349000365,13315,1104,2240
6.367835239000215,0,784,0
6.371828309000193,9746,2032,2704
6.3758126180000545,18596,2208,5633
6.378814704999968,32,10658,0
6.382839128000342,1024,15427,5169
6.38684533300011,11858,10802,10754
6.390817877000245,12387,5137,0
6.39381451600002,7585,5041,0
6.39685419000034,0,3024,0
6.4008320870002535,4865,3072,0
6.404844821000097,11362,7761,1008
6.407816327000091,256,720,0
6.411817070000325,6401,3520,3744
6.4157923410002695,14307,1248,0
6.418878526000299,2976,944,1536
6.422837016000358,2928,5649,0
6.425856070999998,16,2080,0
6.42982456100026,2912,784,0
6.4338104309999835,5937,2784,1184
6.4368135040003835,976,3648,0
6.439847374000237,0,3856,0
6.443838702999983,2576,4064,6001
6.446861770000396,0,2320,0
6.450825193000128,0,6385,0
6.453819208000368,720,1840,0
6.457807488000071,1776,624,0
6.460848135000106,4353,2704,0
6.463862886000243,256,2624,0
6.467819055000291,14563,3056,0
6.471792636000373,13539,816,0
6.4748715919999995,6401,1568,3552
6.478829292000228,0,4353,0
6.481856314000197,13987,7313,0
6.485798439000064,6881,4529,0
6.489811092000309,12979,1936,0
6.492818222000096,3248,7793,432
6.496807450000233,2800,14595,2848
6.500814499000171,14035,20693,17508
6.504833433000385,12451,1552,0
6.507883525000125,11858,1952,0
6.511873789000219,21925,7809,0
6.515984179000043,6513,2080,0
6.518877498000165,6689,6385,0
6.523060299000008,3696,544,0
6.526156099000218,4801,4321,0
6.530062326000007,6913,8706,0
6.53310823000038,2480,1632,0
6.537089152000135,3056,8514,0
6.539839593000124,7025,1312,0
6.544056223000098,4145,976,0
6.547153273000276,5537,1728,0
6.551089201000195,12787,304,0
6.554047709000315,5873,7025,0
6.55782037400013,0,3840,0
6.560826064000139,5889,2672,0
6.564822280000044,28630,4353,0
6.567852505000246,9890,3056,3072
6.57183623400033,9586,13667,0
6.575825815000371,26550,21109,5393
6.5798139329999685,3440,1584,288
6.582823262000147,3920,6913,0
6.586809479000294,3680,6913,2816
6.590794209000251,1792,1872,0
6.593798575000164,8177,3264,0
6.597768095999982,784,2128,960
6.600833738000347,5633,3664,0
6.604831256000125,2736,6625,0
6.608796915000312,7361,2448,1120
6.611794388000362,6769,4401,0
6.616086181000355,11410,64,1440
6.620027183000275,2304,2496,2000
6.623100771000281,0,7169,0
6.627008923000176,656,1280,1952
6.630031505000261,17220,8962,0
6.634072558000298,4369,8338,2848
6.638123234999966,1696,18692,176
6.641812899000342,10434,4545,0
6.645092578000003,8049,3056,0
6.648985942000309,352,5425,0
6.652002110000012,6321,1792,0
6.6561748160002026,11314,1840,2592
6.659843741000259,1456,1008,1616
6.66315951200022,7585,7201,0
6.667161433000274,17764,15539,0
6.670919636000235,1280,2320,1872
6.674288694000097,1792,10562,0
6.678358914,8978,22645,4209
6.6820047140004135,0,1296,0
6.6852640290003364,4897,1872,0
6.689027312000235,8466,14243,0
6.6931687760002205,1792,2208,15619
6.6962000820003595,18292,1152,0
6.700024359000054,11010,800,2736
6.703277401000378,0,8402,0
6.707260884000334,14131,18932,144
6.711054891000003,6897,6241,0
6.714101758000197,0,5185,0
6.718078240000068,5121,3424,0
6.72108164600013,3360,9218,0
6.725045352000052,3520,7953,0
6.728322423999998,0,4945,544
6.732227145000252,5329,672,1760
6.735122801000216,0,5713,0
6.738247548000345,0,960,0
6.74208283400003,8562,1536,0
6.745170724000218,1072,464,0
6.749239995000153,8562,5409,0
6.752511868000056,3120,2816,0
6.756077721000111,5793,16131,2480
6.7599331090000305,128,3840,0
6.763085764000152,64,2560,1264
6.766992636000396,0,688,4593
6.770940120999967,11122,9170,3936
6.774083542999961,17412,10098,0
6.778131797000242,11810,1456,160
6.782072005000373,17012,17956,0
6.7860745830003,12707,5201,3600
6.788999507999961,2000,9378,0
6.792921521000153,1296,19204,544
6.796880318000149,3344,20020,6545
6.799921175000236,2800,4865,0
6.804120788000091,1200,4593,0
6.808021986000313,9714,2416,0
6.811053113000071,1472,4097,0
6.814142303000153,528,880,0
6.818135085999984,1392,4849,3120
6.821827851000307,1136,2576,0
6.8251003300001685,0,1792,0
6.828097957000409,0,3216,0
6.831856448000053,7921,12050,0
6.8358294300001035,15939,3280,0
6.839150084000266,9986,11026,7457
6.843128124000032,20981,5553,0
6.8469516390000535,7585,5873,0
6.850035867000315,8482,2320,416
6.854141446000085,6049,1264,0
6.857259032999991,6721,7777,0
6.861290980000376,3328,1072,2416
6.865099855000153,18356,1136,0
6.868595929000094,4689,8274,496
6.872248133000085,4225,28518,0
6.876037121000081,592,7505,0
6.879352669000127,12883,1488,0
6.883220520000123,2224,768,0
6.886144446000344,32984,4337,0
6.890097894000064,832,9218,0
6.893313733000014,18004,512,0
6.897291677000339,6289,16195,10450
6.901135596000131,0,17332,7009
6.904355039000166,9986,10210,0
6.90838811399999,8290,2816,5617
6.912273238000125,16740,1232,0
6.915239147000193,880,11618,0
6.9191931510004,2128,4785,0
6.9232467189999625,9474,2256,1216
6.9262739560003865,12771,16147,0
6.930151897000087,912,4385,0
6.933358445000067,0,624,816
6.937263768000321,11938,7601,0
6.940246261000084,3488,2144,0
6.944311432000177,17076,9282,0
6.948223185000188,7937,4465,0
6.951406922000388,19492,4881,0
6.955120333000195,27350,912,0
6.959189652000077,15971,5889,736
6.962298865000321,10402,960,0
6.966337956000189,28662,1792,2208
6.970255123000243,5009,2800,5921
6.973404544999994,15699,5809,0
6.977315199000259,2816,1824,0
6.98029296499999,5889,4801,0
6.98437401900037,15507,8978,7745
6.988278490000084,0,6913,0
6.991360605000409,5985,1792,1312
6.995144727000024,18388,7441,0
6.999227831000098,2400,23317,4465
7.002988718000324,112,9490,6417
7.006275513000219,29447,1792,0
7.010095491000357,0,8450,3280
7.013252603000183,0,960,4961
7.017243344000235,5569,2384,3600
7.021022077999987,2448,7985,0
7.024242451000191,3616,1840,0
7.027310556999964,0,3728,0
7.031170461000329,14387,2976,0
7.035017963999962,12755,1952,0
7.038062737000018,1584,64,0
7.041316881000057,0,1184,0
7.045141914000396,1680,224,2064
7.0482728370002405,3328,2064,0
7.052128869000171,8450,1680,0
7.055997954000304,2400,2816,0
7.059162855000068,3184,5297,1712
7.062996784000006,0,944,0
7.066155845000139,9234,1792,6641
7.070080678000068,3808,4097,0
7.074028408000231,4593,3840,6177
7.07712623200041,12723,768,0
7.08107451900014,11858,12515,0
7.085156589000235,11938,4048,3328
7.0889840390000245,14819,10642,23813
7.092915331000313,19092,1472,992
7.096873114000118,11474,22997,416
7.099931734000165,10962,4529,0
7.10413096000002,4977,5025,4865
7.1071362280004,176,11810,0
7.111044434000178,3648,6049,0
7.115060399000413,976,1904,176
7.118080585000371,6225,688,0
7.121855508000408,6161,1824,0
7.125042211000164,0,1616,0
7.1280433820002145,0,3360,0
7.132154192000144,8786,2784,0
7.135070606000227,9890,7393,0
7.1391003800004,64,768,0
7.1421574480000345,464,1024,0
7.146193554000092,3680,8338,784
7.149132505000125,2960,1824,2320
7.153176574000099,3840,4785,0
7.157025275000251,2784,5537,0
7.1612044390003575,13107,6449,13475
7.164310328000283,16884,9554,0
7.168218022000019,20052,928,14547
7.172265736000099,5873,5217,6161
7.1752064190000056,0,11682,1824
7.179324519000147,2896,7889,1616
7.1832872920003865,6849,3680,6913
7.187214534000304,12130,880,0
7.190318896999997,1136,1312,0
7.194085297000129,8802,784,0
7.19726453300018,5201,12579,3376
7.201259668000148,9938,5121,0
7.20518899300032,5457,1664,0
7.208342802000061,5073,10466,0
7.212074112000209,1792,816,9074
7.21525902500025,3216,5409,0
7.219150959000217,0,13267,4353
7.223252228000092,10162,9970,0
7.2263453390000905,2224,6929,0
7.23026970500041,6097,2144,6353
7.23338155700003,3456,1328,0
7.23718660600025,5041,3984,0
7.24129782,24053,3536,1280
7.245149951000258,800,3072,5393
7.248266375000185,7137,21045,0
7.252173097000195,17652,7425,3424
7.256300060000285,5025,3024,1200
7.259217466000337,560,1056,0
7.263352604000374,10610,3232,4369
7.267262315000153,16564,224,0
7.271250802000395,18612,1584,3696
7.274304831000336,2320,6353,0
7.278042797000126,0,15139,0
7.281107918000089,688,1200,0
7.285076374000255,5889,5633,5105
7.289294138000059,13651,19012,4529
7.293134432999977,6097,16371,11746
7.297042843000327,8674,1024,5809
7.300316428000315,16083,2624,4016
7.30436171700012,4753,5137,0
7.308222971000305,3696,2368,784
7.31123918000003,0,2912,2656
7.315139646000262,7681,1552,0
7.318391495000014,4353,7521,0
7.322143933000007,4225,720,0
7.325248193000334,1152,4433,0
7.328317452000192,32,0,0
7.332247185000142,0,5809,0
7.335453391000101,1248,1616,0
7.339176050000333,13571,0,0
7.342261715000404,1504,4401,2048
7.346171640000193,1792,4064,0
7.349412805000156,14755,4401,0
7.353210940000281,6401,2656,0
7.356996955000341,3376,2272,0
7.360297838000406,2784,1824,1424
7.364246153000295,6401,5089,5633
7.368168835000233,7713,1200,7233
7.371323201999985,912,1888,0
7.375156412000251,0,5713,1120
7.378180151000379,3088,3760,0
7.381973870000365,2704,2576,0
7.3850356470002225,27142,80,0
7.388938480999968,6097,3600,0
7.391943953000009,816,8354,0
7.395940039000379,10770,3328,768
7.3999006590001954,4785,480,480
7.403251194000404,7409,3040,0
7.407196304000081,5793,7217,0
7.4102607260001605,6833,4833,0
7.414166384000055,4881,9282,0
7.418225755000094,14099,3088,768
7.421156968000105,0,3104,0
7.425186279000172,13715,464,0
7.4281207060003,208,2064,0
7.431938087000162,8274,1568,3760
7.436220574000345,16852,880,5873
7.439194717000191,0,784,0
7.4422073120003915,1136,2144,0
7.446230166000078,8594,13235,0
7.450152444000196,21669,1264,0
7.453081232000386,7553,1280,0
7.457092290000219,16051,5841,1616
7.461070368000037,23301,3488,0
7.464161004000289,10754,1824,0
7.4682110520002425,15315,0,1184
7.472129333000339,4449,5889,7441
7.475263414999972,25750,768,0
7.479194731999996,12226,1808,0
7.483360861000165,36056,17556,14419
7.487318641000002,25654,2768,1776
7.491233047000151,1504,8562,3072
7.494317584000328,14003,10642,0
7.498236456000086,7281,720,0
7.5014142560003165,736,11410,0
7.505143101000158,5569,5105,0
7.508366054000362,2144,5377,0
7.512242315000094,10098,5649,0
7.516234407000411,13219,768,0
7.519235480000134,624,1360,0
7.522426237000218,3440,1232,0
7.526332129000366,2144,1504,0
7.52928524500021,544,3344,0
7.533314815000267,9714,3840,0
7.537238290999994,2288,16115,0
7.540283948000251,0,496,0
7.543280917000175,0,1024,1296
7.547372506000102,4609,6705,5233
7.551354379000259,2096,3136,13267
7.55524079900033,32311,1344,2048
7.558240782000212,0,17188,0
7.56216336100033,0,6001,9234
7.566216201000316,33880,0,22277
7.569255122000413,2176,9778,11810
7.5734029680002095,1392,7265,2640
7.5772866280003655,11666,9474,0
7.58113426700038,13795,272,6177
7.584359661000235,416,5697,0
7.588332814000296,33064,8466,0
7.591351117000158,10706,2000,0
7.595196220000162,0,4161,7505
7.5983238180001536,6961,1280,0
7.60212261200013,2320,6145,0
7.605364094000379,2832,1088,0
7.609379117000117,6753,3328,0
7.612416998000299,9954,768,0
7.616382175000126,3744,4401,0
7.62133229400024,0,912,0
7.622275672000342,0,768,0
7.626089928000056,1072,7329,0
7.629982097000266,176,4545,624
7.63319358400031,7697,15635,1776
7.637140329999966,5185,6193,0
7.6402384320003875,2080,7425,0
7.644136888000048,2288,5169,0
7.648046282999985,14387,17812,0
7.651212209000278,15891,8402,0
7.654997950000052,3088,13651,3424
7.658965885000271,12242,27974,5553
7.66289749400039,3792,2272,0
7.665919518999999,21589,6257,0
7.669896437000261,15107,16692,2304
7.6738847890001125,7425,7521,0
7.677905000999999,14739,1824,1440
7.680897791999996,0,864,0
7.684917885000232,4193,9314,6865
7.687943737000296,592,1056,0
7.691899345000365,3840,656,720
7.695867206999992,3568,640,1984
7.698978241000077,1072,6449,912
7.702877082000214,4353,480,0
7.705904857000405,0,2560,0
7.70889286900001,0,1648,0
7.712869884000156,15219,912,2416
7.7159535900000265,7009,752,0
7.719893928000147,4032,3680,0
7.723880848000135,7425,1840,0
7.726946391000183,11762,4369,0
7.730922498000382,4048,2048,0
7.733937874000276,13315,7089,0
7.7379527940001935,0,1456,5121
7.74183721899999,18228,12643,7425
7.7448949849999735,7457,7681,0
7.748921573000189,5473,17172,8354
7.753211789000034,36520,8754,13779
7.757148747999963,0,7201,2096
7.761202590000266,3824,1248,1184
7.764184990000103,0,12835,0
7.768244105000122,17268,15331,2560
7.771103404000314,0,6929,0
7.774967451000066,8594,2800,0
7.778189556000143,4833,0,0
7.781242879000274,3216,4097,0
7.785174142000415,3376,1232,1264
7.789187147000121,0,7233,0
7.792129208999995,6385,1824,2320
7.796166607000032,16307,3584,2464
7.800030638000408,0,2848,0
7.803134974000386,9394,12435,5361
7.8072279610000805,4048,5777,6049
7.8112243919999855,0,9250,3408
7.8141335080003955,4801,1072,0
7.818180727000254,1904,1312,0
7.821233078000205,848,768,0
7.825175596999998,6193,1808,0
7.828275001000293,1088,3024,0
7.8321138780002,592,2784,4097
7.836342128000069,6609,2112,2224
7.839466308000283,1072,2352,0
7.843233758000224,5025,768,0
7.846425678000287,1120,2048,0
7.850175314000353,0,3840,0
7.853220761000102,21797,6241,0
7.857243726999968,12947,18708,4353
7.861240246000307,704,17492,5169
7.865140748000158,46891,9986,0
7.868308832000366,720,16596,8033
7.872254149000128,3760,9138,160
7.8762263250000615,8690,12002,12210
7.880360641000152,4209,29975,9986
7.8841871500003435,3296,13907,0
7.887467380000089,7585,2560,768
7.891286795000269,6865,10034,4577
7.895199993000006,4593,6097,80
7.898353463000149,1280,12995,0
7.902202387000216,624,5185,0
7.905219709999983,3344,1584,0
7.90926153700002,0,4385,0
7.91230015300016,3472,2576,0
7.91630980500031,4289,1120,0
7.919333593000374,0,0,0
7.922210343000188,0,768,0
7.925248401000317,400,4353,0
7.929111895999995,96,7937,0
7.932310124000196,16,5633,0
7.936094940000203,2480,1648,0
7.939161636000335,1968,1568,0
7.943087955999999,256,4593,0
7.946192729000359,880,2912,0
7.950040331000309,320,2016,0
7.953205234000052,37689,11570,0
7.957045827999991,26790,1408,0
7.9601068560000385,0,2224,6481
7.964076061000014,42346,15411,7393
7.968050776000382,31767,2304,160
7.971949790000053,4705,2096,672
7.9751032510002915,15635,6929,0
7.9791088619999755,10226,16371,3376
7.983232801000213,10386,16692,2048
7.987166571000216,208,10306,208
7.9911165540002,3328,17636,0
7.994312164000348,2576,9250,0
7.998200270000325,0,1552,0
8.001205302000017,12242,10018,0
8.005226681000295,3584,2160,4625
8.009270976000153,2448,6065,1792
8.013360244000069,21701,1296,3120
8.0164602560003,1392,2960,0
8.020379133000006,9218,3680,1808
8.024181170000247,22645,1184,7217
8.027448395000192,2672,5073,0
8.031331766000221,6577,4913,0
8.035316244000114,10290,1024,2736
8.039232071000242,1792,3328,272
8.042430070000137,5569,1104,0
8.0463701890003,13155,512,0
8.049308045000089,0,16323,0
8.053143333000207,4353,20501,0
8.05613884200011,7969,784,0
8.06021733200032,11618,13347,5201
8.064357131000179,10498,26070,11922
8.068122237000352,1136,5041,2848
8.07214477100024,992,2592,11218
8.075386992000404,12339,17844,0
8.079330174999996,11090,3888,2656
8.083295628000087,1808,944,6513
8.08708352900021,29143,4337,0
8.090249101000154,1712,2976,0
8.09430607100012,64,8370,0
8.097295750000285,16115,10082,0
8.101132236000012,6193,2096,0
8.104492669000138,5745,11650,0
8.108323781000308,608,6209,0
8.111328043000412,16,3840,0
8.1151799270001,144,464,0
8.118347711000297,8049,2016,0
8.122278311000173,4705,3840,2048
8.125382689000162,7361,3344,0
8.12940434200027,2272,4449,0
8.133234490000177,14083,1936,0
8.136298503000035,15523,6561,9810
8.140459301000192,8177,5393,9538
8.144264074000148,10242,1872,0
8.148303180000312,12723,1520,27478
8.151321078000365,3056,2144,0
8.155288802000086,10498,3024,0
8.159308032000354,1632,1744,0
8.162481302000288,2816,13747,928
8.166414295000322,10210,3104,1792
8.170310538000194,544,14083,0
8.173411763000331,13667,3744,0
8.177347423000356,7601,15187,1616
8.181296818000192,768,992,624
8.185124121000172,912,2816,1440
8.188366048000262,7889,17460,0
8.19236595600023,8434,1824,0
8.195352003000153,2192,9266,0
8.199427003999972,7585,28214,7201
8.203346190000047,2416,1120,0
8.206387206000272,2016,1792,0
8.210381386000336,5969,2272,0
8.21342912,48,2096,0
8.217192934000195,8450,2432,0
8.220185740000034,0,2352,0
8.223307731000205,0,1136,0
8.227154519000123,448,3264,0
8.230198200000359,5329,4113,0
8.234148545000153,0,4865,544
8.237212477000412,0,3184,0
8.240296768999997,8161,6913,0
8.244222147000073,2608,5713,0
8.248205300000336,14819,15443,0
8.251341235000382,2048,10674,0
8.255066605000138,14931,5649,10498
8.259007951000058,1792,496,0
8.26199631999998,15187,2848,0
8.265961592000167,4897,864,0
8.269291599000098,2656,800,0
8.272979762999967,6833,14963,0
8.276297649000298,21301,8802,0
8.280167196000093,34264,2992,4209
8.284254101999977,11058,16884,0
8.288080686000285,6705,1024,0
8.29126849000022,1712,6401,0
8.295129919000374,3536,3664,0
8.298186350000378,2192,2592,0
8.302165399000387,1280,2672,0
8.30512970000018,10082,1248,0
8.30913287400017,12098,5105,0
8.312156975000107,0,1280,0
8.316275722000228,1568,5425,0
8.319163271999969,448,1344,0
8.32298505000017,0,5265,0
8.326411184000335,8962,3952,352
8.33003789500026,0,3184,0
8.333453464000286,13331,2736,224
8.337436252000316,20116,4929,0
8.340385507000065,0,4129,2336
8.344496056000025,11266,8434,2576
8.348353773000326,10498,1280,0
8.35215005300006,7937,2544,0
8.355322755000088,26518,7265,0
8.359345045000282,5473,2512,0
8.362494656000308,36328,1168,0
8.366409562000172,8818,15619,0
8.370302030000403,16820,6913,0
8.373335949000193,16532,2784,0
8.37727474600024,24325,3136,0
8.380335050000213,7713,1856,0
8.38423608300036,2640,352,0
8.387423944000147,7249,928,0
8.391356633000214,5377,5889,0
8.394444577000286,960,1104,0
8.398248087000411,784,2880,0
8.40144705800003,4385,2016,0
8.405163148000156,1712,1280,0
8.408460133000062,256,3152,2912
8.412436899000113,9458,3840,0
8.416268885000136,11010,4385,0
8.419251357000121,0,4913,0
8.42322197500016,43242,2432,0
8.426333655000235,5041,4801,4321
8.430394256,368,3120,0
8.433513468000001,9570,2064,0
8.43730157300024,10530,1264,0
8.440484905000176,0,2640,0
8.444287295000322,3600,9682,0
8.447331603000293,3088,6721,0
8.45127536200016,2464,2816,0
8.454364010000063,34040,7153,0
8.458321459000217,34296,7329,0
8.461578271000235,8081,976,0
8.465124026000012,2352,3664,0
8.469081023000399,6849,2480,0
8.472306767000191,12130,1824,0
8.476364340000146,1360,1376,0
8.479504987000382,20388,1040,0
8.483267014000376,9346,1888,0
8.486457817999963,7377,1888,0
8.490394050000305,10434,5377,0
8.494347364000078,30471,3120,0
8.49725360299999,6385,1824,0
8.5012308700002,2048,1072,0
8.504501044000335,2512,1840,0
8.508310144999996,3552,7761,0
8.511386744999982,4465,3648,0
8.515186186000392,8498,5633,0
8.518509365000227,448,1088,0
8.522131788000024,4721,2416,0
8.52524680400029,18036,1056,0
8.52917141800026,3152,4080,0
8.533075188000112,8562,2048,0
8.536244491000161,2576,1728,0
8.540141619000224,8930,1584,0
8.543213784000272,9554,1920,0
8.547089266000057,16067,2256,0
8.550160231000064,11538,4577,0
8.55400466500032,0,4433,0
8.557046245000038,19428,2960,0
8.56099477600037,1200,0,0
8.564261413000168,22037,2368,0
8.568056315000376,40233,3840,0
8.57124986000008,26998,1792,0
8.575138000000152,1776,4000,0
8.579159694000282,34408,944,0
8.582284897000136,7505,1664,0
8.5862462770001,7153,2576,0
8.589263640000354,13539,2720,0
8.593257796000216,11506,2256,0
8.59628981600008,33544,1296,0
8.600225172000137,4113,3328,0
8.604222401000243,13859,768,0
8.607263187000171,20725,2848,0
8.611268017000384,8786,2912,0
8.614278470000045,1680,2608,0
8.618100385000162,19204,1520,0
8.621245382000325,5537,1552,0
8.625127754999994,6705,5377,0
8.628400832000352,1440,2784,0
8.632396465000056,4977,4817,0
8.636155640000197,5345,3312,0
8.639321681000183,2784,2000,0
8.643373204,4961,944,0
8.646476528000221,22213,2640,0
8.650155245000406,2592,2992,0
8.653516912000214,22821,2912,0
8.657363070999963,0,1168,0
8.66025756900035,24421,1824,0
8.664255087000129,10594,1216,0
8.66752782399999,5889,2304,0
8.671274246000394,0,2048,0
8.674351158000263,1840,1360,0
8.678332135000346,65535,2288,0
8.68154193600003,13907,848,0
8.685207978000108,18068,1008,0
8.68936297900018,14563,4113,0
8.692487437000182,2272,4353,0
8.696406055000352,2304,2560,0
8.699494794000202,928,1552,0
8.703288831999998,1200,1136,0
8.706483478000337,5025,1696,0
8.710288958000092,1184,2032,0
8.71336730100029,4865,1920,0
8.717343274000086,19556,2080,0
8.720497754000007,0,1216,0
8.72439753000026,688,1904,0
8.727372866000223,4961,2544,0
8.731323199000144,512,1280,0
8.734280220000073,768,1200,0
8.73820394600034,3984,2000,0
8.741500606000045,2448,2304,0
8.744492176000222,48,1120,0
8.748340984000151,6961,3088,0
8.752169999000216,5505,1952,0
8.755252401000234,8161,2816,0
8.759197186000165,2816,2048,0
8.762276622000172,560,1776,0
8.76631601300005,176,2096,0
8.76933183400024,4625,3040,0
8.773368159000256,13571,3360,0
8.776379315000213,512,1792,0
8.779358216000219,0,1248,0
8.783287476000169,4193,7025,0
8.786338210000395,8962,1008,0
8.79036285400025,10738,4337,0
8.794156933000068,3248,1552,0
8.797396677000052,14899,3056,0
8.801315789,11810,1552,0
8.80452455700015,656,1632,0
8.808378903000175,14739,2304,0
8.812145326000064,18228,1136,0
8.815210214000217,4865,2736,0
8.819177756000045,10194,1312,0
8.82228738699996,12451,1424,0
8.826211433000026,6321,1200,0
8.830106336999961,16227,2096,0
8.833245918000102,2464,2976,0
8.837061366000398,4016,1648,0
8.840128057000129,2912,2048,0
8.84402688099999,16211,80,0
8.84705399700033,1568,2528,0
8.85102209500019,4145,2800,0
8.8540375460002,2672,1744,0
8.857973555000171,3872,816,0
8.860979304000011,1280,1056,0
8.865015053000207,13139,1248,0
8.868045069000345,11586,2064,0
8.872045596000135,784,6049,0
8.875038901000153,10418,1120,0
8.879061426000135,3504,2592,0
8.883028444000047,7425,1248,0
8.886039353000342,14355,1856,0
8.890017140000054,7217,2000,0
8.893062920000375,608,3072,0
8.897052289000385,6945,1792,0
8.900067789000332,33656,688,0
8.903055000000222,0,576,0
8.907030280000072,6961,5345,0
8.910082837000118,1568,2592,0
8.914064757000233,10498,3744,0
8.918045689000337,25398,1568,0
8.921050544000082,0,752,0
8.924067562000346,864,1264,0
8.928026260000024,8306,8001,0
8.93200781800033,15587,1440,0
8.935062559000016,1680,3328,0
8.939041742999962,3856,2016,0
8.94204462200014,2976,1408,0
8.946032671000012,19684,1040,0
8.949076377999972,32743,3152,0
8.953014417000304,6465,9378,0
8.956048273000306,32631,752,0
8.96025674700013,10082,2448,0
8.963211238999975,512,880,0
8.967242646000159,6417,5329,0
8.970989250000002,10978,3232,0
8.974273719000394,6497,2624,0
8.97822824900004,3840,2304,0
8.981231293000292,0,1024,0
8.985161619000337,19092,2064,0
8.98830389900013,47659,2816,0
8.992241014000228,4609,3840,0
8.995113651000338,3568,2512,0
8.9991800290004,4097,608,0
9.002219805000095,5889,976,0
9.005087009000363,0,2128,0
9.00906096000017,4593,3600,0
9.013021890000346,1296,3728,0
9.01604188500005,4193,2416,0
9.020022145999974,6497,1104,0
9.023085531000106,10610,1024,0
9.027015981000204,5137,2160,0
9.030097494000074,11474,1584,0
9.03401709300033,42330,8626,0
9.038006998000128,23285,1760,0
9.041047243000321,17156,1792,0
9.045005925000169,400,592,0
9.048044561000097,14163,3360,0
9.051992836000409,41210,2640,0
9.05504374200018,352,2288,0
9.058998062000228,2720,0,0
9.062025664999965,2368,1216,0
9.066011573000196,11282,1056,0
9.069011109000257,31127,1248,0
9.073024205000365,65535,2512,0
9.077003252000395,46923,1184,0
9.08003553000026,29783,1536,0
9.08400752100033,10482,1184,0
9.087050462000207,28470,1424,0
9.091028571000152,10834,3328,0
9.095005747000414,6929,3280,0
9.09806840200008,12819,1360,0
9.102284753000276,6097,208,0
9.105164261000027,0,2352,0
9.109038955000415,15779,2048,0
9.112036056000306,6145,2672,0
9.115980113000205,144,1296,0
9.119040854000104,5137,2080,0
9.122990385000321,1120,1280,0
9.126249741000265,3648,2192,0
9.130316816000231,5905,1200,0
9.133339609000359,17924,2256,0
9.137344490000032,1792,6865,0
9.141291546000048,18100,1088,0
9.144347443000242,8690,3120,0
9.148279179000383,25862,2192,0
9.15128679899999,8017,1872,0
9.155147995000334,592,1280,0
9.158231716000046,1936,2448,0
9.162257650000356,1328,608,0
9.165150429000278,10578,1568,0
9.169334213000184,16724,3488,0
9.172300532000008,2352,2288,0
9.176286287000039,528,5041,0
9.179448830000183,2656,816,0
9.183432431000256,11042,976,0
9.186446138000065,2464,1280,0
9.190479156000038,368,6241,0
9.193568254000184,4097,2512,0
9.197473998000078,4705,6369,0
9.201184597000065,11058,1264,0
9.20448150600032,1296,1952,0
9.208344972000305,16371,2000,0
9.211582185000225,17412,2224,0
9.215230334000353,16628,2096,0
9.219246164000197,11186,2288,0
9.222485931000392,592,1152,0
9.226452172000336,10290,1792,0
9.229419045000213,1072,2256,0
9.23341968700015,816,1824,0
9.236527268000373,1328,1904,0
9.240460097000323,6705,1296,0
9.243418878000284,3376,1024,0
9.247483633000229,38633,1440,0
9.250486786000238,8145,1312,0
9.254473850000068,17940,4193,0
9.257603533000292,368,1520,0
9.261262394000369,5217,2304,0
9.265197134000118,26662,2304,0
9.268427856000017,4145,2640,0
9.27243541300004,1696,1904,0
9.275303090000307,20965,2448,0
9.279350071000408,256,1280,0
9.282547604000229,1536,1616,0
9.286483907000274,7025,1792,0
9.289532501000394,3184,0,0
9.29330695500039,6657,3072,0
9.29656048400011,23333,2080,0
9.300469453000005,8434,624,0
9.3035218480004,0,1472,0
9.307441527000265,15395,1392,0
9.310391878000246,32,2304,0
9.314261600999998,3376,1792,0
9.31755447200021,4401,2512,0
9.321437013000377,1536,1056,0
9.324543006000113,2064,1744,0
9.3283437340001,4849,1392,0
9.33129527500023,1104,2480,0
9.335198363000018,4881,2320,0
9.338575467000283,3472,1440,0
9.341459718000351,0,592,0
9.34531235400027,6945,4129,0
9.349419496000337,3280,2704,0
9.352485485000216,3536,2304,0
9.356425107000177,8466,2560,0
9.35953944100038,1792,1216,0
9.363452602000052,752,1072,0
9.366544913000325,6353,1440,0
9.37044835200004,256,2144,0
9.373355881000407,4145,3088,0
9.377197219000209,4273,1328,0
9.380300723000346,1184,784,0
9.384133934000147,1104,816,0
9.387296593999963,5025,1904,0
9.391165772000022,256,2864,0
9.394291028000225,3104,2512,0
9.398239354999987,4321,1824,0
9.40131313000029,768,1728,0
9.405081360000167,528,2208,0
9.408124880000287,8001,3600,0
9.412061778000407,3856,1744,0
9.41510601500022,5553,1184,0
9.419096317000367,2528,816,0
9.42236070600029,560,928,0
9.425206693000291,4865,1520,0
9.42933294400018,8962,3040,0
9.433296652000081,3088,2368,0
9.436336385000232,7857,2480,0
9.440287943000385,288,1120,0
9.443315835000249,800,1712,0
9.447032777999993,4609,2016,0
9.450252548000208,1792,2336,0
9.454198161000022,3888,624,0
9.457193112000368,6737,1792,0
9.46032767800034,336,752,0
9.46431743500034,624,4321,0
9.467367271000057,5793,2480,0
9.471398341000167,688,6481,0
9.474399585000356,3552,2112,0
9.4783345740002,4513,5953,0
9.481624685000043,464,1744,0
9.485384767000141,2672,7025,0
9.488500705000206,5073,2256,0
9.492492907000269,1616,5825,0
9.495451725000294,5953,272,0
9.499525979000282,2864,4577,0
9.502570976000243,0,1280,0
9.506455601000198,3776,1280,0
9.509561631999986,2256,2816,0
9.513472094000008,5441,3312,0
9.51662939200014,5537,1280,0
9.520458771999984,0,6481,0
9.523522722000052,0,1200,0
9.526615681000294,3824,2272,0
9.530496888000016,3968,3520,0
9.533622576000198,768,1648,0
9.53754102000039,6673,4097,0
9.540527172000111,0,880,0
9.544260857000154,336,768,0
9.547477222999987,5697,2544,0
9.550707272000182,0,3232,0
9.554505535000317,2592,7937,0
9.557604768000147,5585,1776,0
9.561283613000342,128,3248,0
9.56429867900033,736,768,0
9.568348713999967,5233,1184,0
9.571618963000219,768,1792,0
9.575283267000032,3952,256,0
9.578398723000191,3152,1536,0
9.581546256000365,0,848,0
9.585372557000028,2528,3696,0
9.588530367000203,3344,3024,0
9.592555595000249,6689,5393,0
9.596442448000289,7137,1968,0
9.599558166000406,1648,1936,0
9.602439085000242,432,640,0
9.606529994000084,8290,3584,0
9.609631713999988,224,3760,0
9.61352927200005,5889,4865,0
9.617444232000253,6913,1024,0
9.620414799000173,2352,2048,0
9.624470900000233,1232,1904,0
9.62754983800005,6401,1904,0
9.631459518000156,1376,1968,0
9.634379762000208,2400,1840,0
9.63848212000039,4369,1024,0
9.64159436800037,0,1248,0
9.64447704200029,1408,784,0
9.64841688200022,9682,4369,0
9.651554321000276,768,2704,0
9.655323103000228,5073,2656,0
9.659411032000207,1504,1232,0
9.662546685000052,2784,2208,0
9.666257376999965,3328,1248,0
9.669292324000253,2416,2720,0
9.673209188000328,2624,1904,0
9.67627346900008,7505,1792,0
9.680143778000001,416,464,0
9.683288433000143,1280,1792,0
9.687225788999967,6721,1280,0
9.690299761999995,784,2800,0
9.694218264000028,3184,1952,0
9.697186152000086,4193,2720,0
9.700241333000122,992,0,0
9.704121127000235,944,1552,0
9.707133156000054,8946,1104,0
9.711099457000273,1232,3072,0
9.714112864000072,1728,2352,0
9.718287350000082,3840,5601,0
9.721330109000064,0,784,0
9.724323524000283,816,0,0
9.728276667000046,2256,1792,0
9.731142176000048,416,2976,0
9.735235668000314,6401,1792,0
9.738378969000223,3024,2000,0
9.742393104000257,512,5665,0
9.745208150000053,3440,1440,0
9.74933037100027,1472,7169,0
9.752357616000154,4625,2224,0
9.756377266000072,10114,3984,0
9.759333605000393,0,528,0
9.763327553000181,432,480,0
9.766345589000139,6801,0,0
9.76932806700006,32,1728,0
9.773140345000229,2000,2816,0
9.776465212000403,6401,2128,0
9.780162029000167,1200,1024,0
9.78335436200041,272,1552,0
9.787529110000378,4753,1712,0
9.790588648000266,48,2656,0
9.794293064000158,1168,960,0
9.797420330000023,4961,1744,0
9.801283337000314,816,1520,0
9.804586680000284,336,1904,0
9.808388448000187,5889,2272,0
9.811552160000247,0,2208,0
9.814610771000389,1104,1792,0
9.8183553140002,4817,4048,0
9.821351594000134,0,608,0
9.825170135999997,1040,768,0
9.828416870000183,5969,2096,0
9.832315096000002,880,1840,0
9.835390519000157,5217,2464,0
9.839475178000157,2368,1488,0
9.84238382400008,512,1792,0
9.846432540000023,4913,1968,0
9.849548022000363,1952,1552,0
9.853613777000191,3840,2480,0
9.85645955400014,6753,2816,0
9.860391432000142,1024,1024,0
9.863313887000004,0,1424,0
9.86743066200006,7665,800,0
9.870436600000176,1792,4241,0
9.874339596000027,1808,1552,0
9.877604435000194,5217,2320,0
9.881515140000374,1632,672,0
9.884564804000092,3328,1824,0
9.888495671000328,7329,2272,0
9.891636327000015,2464,2832,0
9.895329757000127,2912,1536,0
9.89863715499996,2784,1136,0
9.902460637000331,512,1328,0
9.905392330000268,5121,2848,0
9.909495871000217,2192,2896,0
9.912534565999977,1808,752,0
9.916467426000054,8177,2368,0
9.919559613000274,1216,608,0
9.923411100000067,0,1344,0
9.926404539000032,7217,2352,0
9.930449564000355,1024,2976,0
9.933524367000246,3840,2992,0
9.937458944000355,5889,1280,0
9.940586557000188,1024,768,0
9.943481775000237,0,1568,0
9.947553540000172,6609,5089,0
9.950638051000169,608,2048,0
9.954360547000306,928,4881,0
9.957640020000326,4865,2464,0
9.961568271000033,1232,5377,0
9.964516063000247,1280,1536,0
9.968363793000208,6033,5041,0
9.972210206,1552,2336,0
9.975293407000208,6241,3488,0
9.97921530800022,2464,1184,0
9.98233446300037,832,1952,0
9.986203756000123,5025,1936,0
9.989337077000073,2544,2496,0
9.9932389290002,3632,2192,0
9.996288057000129,7889,2672,0
9.999257500000112,0,624,0
10.003145068000322,144,6961,0
10.006164427000385,4064,3056,0
10.010100063000209,0,2480,0
10.013153121000414,3840,2912,0
10.017088431000047,6401,2096,0
10.020149465000031,1232,1024,0
10.024249671000234,2192,784,0
10.027339375000338,6193,1776,0
10.030354828000327,0,2816,0
10.034114770000087,2608,2608,0
10.038229020000017,3344,2048,0
10.041304890999982,1120,1840,0
10.045126090000394,1776,2784,0
10.048218500000075,4241,2512,0
10.052301855000223,944,2528,0
10.055123941000147,6065,1472,0
10.059343217000333,2336,784,0
10.062379437000345,1376,816,0
10.06638616600003,4865,2336,0
10.069373156999973,1120,2304,0
10.073363469000014,1920,2448,0
10.076565623000079,6481,2368,0
10.080332413000178,272,800,0
10.083543073000328,1808,2304,0
10.087438124000073,4273,1984,0
10.0905441900004,352,1760,0
10.094429313000091,5617,2752,0
10.097576033000223,6641,1280,0
10.101232016000267,304,1184,0
10.10459515399998,2016,1760,0
10.108400900000106,5537,1792,0
10.111633456000163,336,1744,0
10.115354826000384,2448,1472,0
10.118516500000169,2848,2048,0
10.122472930000185,512,1184,0
10.125447760000043,2208,1312,0
10.129505579000124,2416,2000,0
10.132511582000006,3904,2816,0
10.136340250000103,7793,2560,0
10.13962199100024,1088,1312,0
10.143388430000414,944,1504,0
10.146636025000134,5777,1648,0
10.150391060000402,864,2656,0
10.153623770000195,2224,1632,0
10.157553652000388,8274,2080,0
10.160591290000411,0,912,0
10.16366054800028,624,1808,0
10.167627281000023,9250,2352,0
10.171433043999969,1280,1760,0
10.174609917999987,2928,3088,0
10.178372395000224,3536,1808,0
10.181361399000252,752,1424,0
10.185290502000043,752,1792,0
10.188439974000175,5137,3600,0
10.191685925000002,0,2096,0
10.195379530000082,3840,7249,0
10.198608233000414,3184,1280,0
10.202524092000203,0,3584,0
10.205437169000106,4449,1072,0
10.209543027000109,2560,3088,0
10.212624527000116,4833,2992,0
10.216547361000266,9522,2240,0
10.219651651000277,2048,1104,0
10.223516644000028,0,4913,0
10.22664179200001,5889,2608,0
10.230351258000155,464,2544,0
10.23344381600009,4625,1488,0
10.23752355500028,6209,2672,0
10.240540791000058,48,2128,0
10.243626046000372,0,1712,0
10.24748770100041,5985,5681,0
10.25061142200002,976,2576,0
10.254490523000186,5489,960,0
10.257591037000111,5089,2512,0
10.261364786000286,1536,1504,0
10.264386407000075,1280,288,0
10.268249928000387,2384,2816,0
10.271375585999976,832,2144,0
10.275307288000022,4273,2416,0
10.278403674000401,2944,2144,0
10.282251784999971,0,6625,0
10.28535339500013,2816,2032,0
10.289280984000015,2816,2608,0
10.292228648000219,1344,2272,0
10.29616252599999,6145,1248,0
10.299152132000017,1808,1360,0
10.303108136999981,1344,1648,0
10.306148180000037,5537,1520,0
10.310239174000344,0,5905,0
10.31339265700035,6113,2720,0
10.317304563000107,5665,2080,0
10.320297523000136,848,1280,0
10.324265749999995,736,992,0
10.327329691000159,8466,2336,0
10.331275002999973,480,1440,0
10.334201855000174,4209,2304,0
10.338344191000033,4193,1840,0
10.341342877999978,0,928,0
10.3443512810004,688,1792,0
10.348085709000316,4353,2384,0
10.351199398000063,320,2864,0
10.355147615000078,2608,1040,0
10.358135285000117,2464,1776,0
10.362122280000222,1056,1088,0
10.365179548000015,4241,2560,0
10.369152941000266,3168,5617,0
10.372175076000076,432,2320,0
10.376171674000034,8418,6385,0
10.379186054999991,2672,1648,0
10.383170293000148,2848,1552,0
10.387147649000326,4865,1632,0
10.390129270000216,2128,2400,0
10.394076951999978,5377,1712,0
10.397125608000351,5681,2160,0
10.401100431000032,32,1328,0
10.404123096000149,2768,2512,0
10.408095771000262,4977,2400,0
10.41111498500004,1280,2352,0
10.415075162999983,2048,1952,0
10.418132169000273,2448,1952,0
10.421115504000227,0,336,0
10.425133308000113,1104,6257,0
10.428160909000326,3072,3392,0
10.4321278540001,4913,3152,0
10.436133048000102,4737,1456,0
10.439141015000132,6145,3840,0
10.443117798999992,1184,1504,0
10.446216601000287,5153,1328,0
10.450412617999973,448,2992,0
10.45350055200015,3856,2608,0
10.457362283000293,4625,1712,0
10.46041466800034,32,944,0
10.463426977000381,368,1792,0
10.467153721000159,3568,6609,0
10.47048930300025,256,3040,0
10.47433540100019,4593,7537,0
10.477319365000312,3040,1712,0
10.481459495000308,5041,3136,0
10.484382516000096,512,1136,0
10.488359367000157,6321,4353,0
10.491358535000018,560,1200,0
10.495215276000181,6561,4097,0
10.498380208000071,1360,2016,0
10.502494584000033,816,1056,0
10.505433563000224,4177,1328,0
10.509487241999977,5233,4625,0
10.513352422000025,2800,2096,0
10.516567604000102,8882,2496,0
10.520328514000084,256,1120,0
10.523357647000012,832,2160,0
10.527471370000058,5201,1520,0
10.530466684000203,2192,2096,0
10.534310547000132,1376,2048,0
10.537584032000268,5345,2768,0
10.540473032000136,256,768,0
10.544503378000172,3216,2672,0
10.548388530000011,5633,2480,0
10.551460301000134,1344,3632,0
10.555281210999965,4321,2304,0
10.558479151000029,3920,2224,0
10.562236962000043,784,768,0
10.5653774350003,2832,3040,0
10.569275180000204,2736,3648,0
10.572383281000384,1216,1024,0
10.576294877000237,6049,2160,0
10.579391562000183,2240,1424,0
10.583225042000322,0,1104,0
10.58633301000009,5201,3936,0
10.59019226700002,784,2576,0
10.593196684000304,3808,2864,0
10.597097570000187,5921,1696,0
10.600187856000048,2448,1936,0
10.603155278000031,0,1008,0
10.60733635700035,5281,8017,0
10.610447490000297,1904,1408,0
10.614205219000269,6001,2528,0
10.617434579000019,3696,256,0
10.621394610000152,0,4193,0
10.624379806999968,432,1552,0
10.628339677999975,7537,1168,0
10.631391017000169,1712,2672,0
10.635439843000313,2784,2080,0
10.63843342400014,3680,2448,0
10.642427962000056,1280,2080,0
10.645195663000322,4097,2416,0
10.649291861000165,2672,6897,0
10.652438305000032,256,2288,0
10.65647207200027,9554,5489,0
10.659318449000239,1952,1024,0
10.663458172999981,624,5169,0
10.666712313000062,4032,1392,0
10.670458112000233,0,5777,0
10.673608722000154,2976,3168,0
10.677589355000237,6369,1840,0
10.680533027000365,512,1280,0
10.68365282800005,0,304,0
10.68747581300022,5921,6769,0
10.691535978000047,1376,3072,0
10.694456281000384,5089,2928,0
10.698280351999983,3536,1232,0
10.70138742800009,1488,1840,0
10.7054596830003,192,2304,0
10.7084776290003,5377,2928,0
10.712373679000393,1264,2784,0
10.715425346000302,4097,1824,0
10.719571288000225,1760,2256,0
10.722605252999983,0,1424,0
10.726485805000266,3392,1792,0
10.729481731000305,4689,3328,0
10.733412641000086,1264,2080,0
10.73645744400028,7745,1760,0
10.740555604000292,2592,2080,0
10.743618618000255,256,1296,0
10.747409756000252,5777,1904,0
10.750470942999982,1488,2304,0
10.754527586000222,4513,2592,0
10.757478919000278,5185,1856,0
10.76132600100027,960,1552,0
10.764581973000077,768,1760,0
10.768315822000204,3888,2256,0
10.77171771400026,1296,2560,0
10.775389743000233,3520,1696,0
10.7784852220002,2960,3040,0
10.782343713000046,0,1024,0
10.785428485000011,2592,2016,0
10.789564203000282,7025,1824,0
10.792672172000039,5073,2816,0
10.796384191000016,6673,2064,0
10.799405536999984,1712,1824,0
10.803284357000393,0,1168,0
10.80639209400033,5889,2080,0
10.810523438000018,208,3328,0
10.81363087400041,5025,3664,0
10.81650466400015,5873,816,0
10.820393689000412,4641,3152,0
10.823474659000112,768,1392,0
10.827451189000385,7169,4064,0
10.83046355400029,0,1744,0
10.834361066000383,5377,1536,0
10.837459022000075,5121,1824,0
10.841348595,0,6929,0
10.844337396000356,3216,2096,0
10.848231405000206,9842,2896,0
10.851253506000376,592,1536,0
10.855152087000079,2000,5377,0
10.858212371000263,11362,2352,0
10.862179477000154,3840,1792,448
10.866140700000415,4865,1280,0
10.869174516000385,1936,3024,0
10.873120210000252,4321,2048,0
10.876215770000272,6705,1584,0
10.87923006400024,0,1632,0
10.883198837000236,6401,4577,0
10.887182289000066,14227,1232,0
10.8901713690002,944,1952,0
10.894158750000315,5889,2592,0
10.897232934000385,4497,1280,0
10.901191091000328,7425,1168,0
10.904221760000382,1312,1488,0
10.908148637000068,272,672,0
10.911180895000143,4064,2816,0
10.915189119000388,2320,1712,0
10.918226646000221,1760,1280,0
10.922192744000313,2608,688,0
10.925215386000218,14195,1952,0
10.929202194000027,27478,2544,0
10.932229420000112,2336,1344,0
10.936219589000302,13347,4161,0
10.939226401000269,0,800,0
10.943198524000309,4897,256,0
10.946222111000225,6001,1728,0
10.950139503000173,2752,2992,0
10.953206987000158,1232,2192,0
10.957178600000134,10594,1232,0
10.960191775000112,0,3072,0
10.964187388000028,2208,256,0
10.967225713000062,20981,2256,0
10.971201356000165,1824,560,0
10.974202282000078,1696,2576,0
10.978196007000406,25174,1776,0
10.98124335600005,240,1024,0
10.985188444000414,19780,1488,0
10.989155451999977,21317,1696,0
10.992218459000014,2928,1792,0
10.99618601200018,320,1952,0
10.999213641000097,4016,1632,0
11.003196604000095,4337,2912,0
11.006232842000372,20404,1872,720
11.010131162000107,9122,5297,0
11.013191894000101,0,1024,0
11.017124900999988,9810,240,0
11.020138474000305,3552,416,0
11.023460081000394,160,2128,0
11.027442399000392,20581,1616,0
11.03142895200017,3344,944,0
11.034360913,7505,3232,0
11.03834278300019,6001,1152,0
11.041131846000098,0,1088,0
11.045130562000395,1840,2784,0
11.048358387000007,20709,2272,0
11.052419698999984,16227,2912,0
11.055466447000072,20773,1232,0
11.059338505000142,1248,5393,0
11.062327976000233,1872,496,0
11.066189182000016,1376,5921,0
11.069285709000269,6769,3856,0
11.073243131000254,11410,2816,0
11.077210359000219,2896,2640,0
11.080244218000189,8001,272,0
11.084203918000185,9218,3584,0
11.087269730000116,13571,5265,0
11.091200594000384,17924,4113,0
11.094242971000313,25942,864,0
11.098205226000118,21109,6017,0
11.10118153700023,0,768,0
11.10513793600012,29911,624,0
11.108189546000176,16,4305,0
11.112152290000267,240,1952,0
11.115200447000007,5889,10162,0
11.1191798130003,35112,1280,0
11.122196889000406,6017,400,0
11.126106011000047,1024,624,0
11.129165914000168,5793,1888,2912
11.133186045000002,13315,2784,0
11.1361748420004,7505,0,0
11.140169227000115,4145,7169,0
11.144384620999972,2144,2320,688
11.14744350700039,6705,304,0
11.151442168000358,1648,3856,768
11.154434068000228,944,5905,0
11.158193478000157,12547,8786,0
11.161452845999975,7665,8258,0
11.165203836000273,7585,5841,0
11.168298574000346,8722,1296,0
11.17216618800012,20661,2848,0
11.176469737000389,4977,3792,0
11.179473477000101,800,3328,0
11.183362513000247,20276,2768,0
11.186340553000264,11378,1792,0
11.1903301440002,27910,832,576
11.194491424000262,24758,3920,3568
11.198366531000374,5889,1184,448
11.201557761000004,5233,1360,0
11.2055604330003,768,2224,0
11.20850646000008,1088,2416,0
11.211571099000139,0,2576,0
11.21557837399996,8450,6913,0
11.218612146000396,5745,8113,0
11.222630979000314,2320,3936,0
11.226572205000139,12723,1136,0
11.229697684000257,7393,2368,304
11.23351063300015,7441,11842,0
11.237592478000352,768,5985,3312
11.240510889000234,2096,2128,0
11.244566000000304,7729,3872,0
11.24767348100022,0,2576,0
11.250509650000367,0,8306,0
11.254611704000126,5617,6289,0
11.257740312000351,9074,10482,0
11.261571658000321,13299,3888,0
11.265433100000337,1632,1568,0
11.26838963299997,0,2128,0
11.272503181000047,27910,7425,0
11.27557047800019,13059,4849,5409
11.279624682000303,20212,4257,0
11.28339712900015,10290,1280,0
11.286634249000144,768,3504,0
11.290474264000295,288,1056,0
11.293647265000345,5377,5665,0
11.297569220000241,18436,3248,0
11.300440963000256,0,1904,0
11.304509412000243,1600,5297,0
11.307612844000232,784,1856,0
11.311531432000265,0,1712,1776
11.314451444000042,1280,4465,0
11.318675754000196,14019,3328,1552
11.321661617000245,5393,656,0
11.325466473000233,0,5601,0
11.328551878000326,25350,1280,0
11.3326084790001,656,4048,0
11.336439075000271,18388,1600,4993
11.339729049000198,4401,6561,720
11.3436969520003,11810,9042,6401
11.347692699000163,41786,23653,4817
11.35139319000018,0,22437,0
11.354682225000033,18852,1408,0
11.358501169000192,7073,7681,0
11.361556001000281,0,2032,0
11.3655736110004,11442,8354,0
11.36855299400031,14355,6449,0
11.372537853000267,22277,17652,0
11.375737137000215,1648,304,0
11.379662999000175,2480,7425,0
11.382725438000307,400,1056,0
11.386623753000094,2736,4145,0
11.390425272000357,4305,656,1616
11.393510759000037,1264,1824,4769
11.39746300700017,14083,6961,2992
11.401358691000041,608,7505,0
11.405354086999978,14803,8274,3024
11.408511753000312,8882,3392,1808
11.412364978000369,0,5681,0
11.415471690000231,10034,2864,0
11.419425873000364,2864,720,6161
11.423254120000365,768,8770,1968
11.426329630000055,7409,6177,0
11.430283838000378,17156,13747,1392
11.434227023000403,0,3296,20741
11.437245929000255,12066,4097,0
11.441370770000049,1280,10226,0
11.445239499000309,448,1424,2016
11.44945107500007,21509,5713,976
11.452500860000328,30647,8962,0
11.45634447800012,1856,2224,0
11.459519504000127,9490,1680,0
11.46342009700038,1968,5297,0
11.467470114000207,4977,1072,528
11.470477074999962,14291,1968,544
11.474402443000145,928,7297,0
11.477519485000357,17668,1536,0
11.481563103000099,21909,4113,3232
11.485364391000076,9202,1104,0
11.488426679999975,20741,976,0
11.492518210000071,13347,6561,192
11.496351753999988,256,3152,1792
11.4994513190004,7377,1744,0
11.50361887300005,1376,5377,0
11.506580443000075,752,4401,0
11.510574444000213,18276,9058,3328
11.514468203999968,9490,2480,0
11.518434056000387,15107,2480,6977
11.521636819000378,7697,7681,4481
11.525678383000013,4577,3552,6113
11.529490434000309,21509,3776,0
11.532672577000085,528,2048,0
11.536667823000244,16179,2048,2448
11.540437321000354,0,19876,0
11.543573762000051,11314,23237,0
11.54764983000041,22101,224,3888
11.55056073500009,0,5937,0
11.554591337000147,4785,9490,0
11.55773407200013,0,2016,1104
11.561670101000345,1424,6081,0
11.565500520000114,2320,8786,0
11.568478541000331,1840,1696,0
11.572605828000178,18948,14179,0
11.575663088000056,19156,3600,0
11.579486240000278,8001,5857,0
11.582670489000066,48,848,0
11.586363796000114,0,1456,2048
11.58969766500013,16,3328,992
11.593462721000378,4833,640,0
11.596679854000286,3344,1568,0
11.60052180599996,12034,4865,0
11.60357865900005,9938,3168,0
11.607659040000271,5681,5377,1232
11.611428195000371,1648,560,0
11.61455958400029,2784,2256,0
11.61756993500012,0,3664,0
11.621585360000154,960,1776,0
11.625522229000126,5633,10722,0
11.628579189999982,7633,5425,10034
11.632639783000286,6753,4305,0
11.635620304999975,2304,1808,0
11.639621860000261,432,9170,0
11.642478736000157,0,1232,0
11.646610341000269,8962,6129,0
11.65033987400011,14307,688,4897
11.653673604000232,1024,15379,0
11.657570209000369,7617,560,0
11.660577027000272,1376,1440,3360
11.664665057000093,2704,2880,3344
11.668467530000271,5633,15251,0
11.671633593000024,256,944,0
11.675619310999991,10242,12547,0
11.67959567700018,3472,864,1712
11.682716273000096,3072,2000,1808
11.686708266000096,6145,3952,1280
11.690455934000056,18180,13779,6449
11.694360454000162,10722,4609,0
11.69837034200009,5409,17556,2384
11.70233496300034,13427,1136,2848
11.705426560999967,224,4433,2128
11.70945840000013,26134,12723,11522
11.713414511000337,10386,0,12130
11.717232121000052,7729,1360,0
11.720350621000307,14499,800,4721
11.724243822000062,11890,5057,3664
11.7281987690003,4337,2304,0
11.732157930000085,20805,2416,6145
11.735323607000282,1680,4513,0
11.739486998000302,7425,1056,0
11.742481858000247,0,816,0
11.745211742000265,48,1456,0
11.7494535120004,800,3824,0
11.75251315000014,4273,1024,0
11.75646460500002,3792,3904,0
11.75950714999999,240,2816,0
11.76349538400018,6433,4465,2144
11.767395665000095,2416,2160,0
11.770496632000231,1904,3296,0
11.774451544000385,128,1712,0
11.777344788000391,12034,5217,0
11.781389534000027,5633,992,0
11.784355944000254,2976,2160,3168
11.78824228600024,5009,1824,5041
11.792489157000091,19300,15827,0
11.79643048600019,11010,4497,8754
11.800390383000376,2640,9986,2048
11.80368784600023,4785,8354,0
11.807585094000387,0,2096,624
11.810722964999968,2096,6865,4353
11.814694768000209,19972,9986,1568
11.818433637999988,0,1280,0
11.821721317000083,6657,3216,0
11.8246011250003,0,1024,0
11.82843303000027,0,7729,1072
11.831644777000292,1472,4353,0
11.835704693000025,6257,8690,4401
11.83948139200038,1856,1440,0
11.842629972000395,0,704,0
11.846390653000071,4433,1648,0
11.849591073000283,2352,7601,1792
11.85351606300037,0,4961,6705
11.856570807000026,2960,480,0
11.860410758000398,0,6369,0
11.863523502000135,7697,1808,0
11.867393932000141,8786,7857,0
11.870585553000183,368,11826,0
11.874581784000384,4913,368,0
11.877699722000216,14163,5009,0
11.881567466999968,4561,3952,0
11.884689694000372,768,3136,0
11.888510687000235,6753,19924,1472
11.892577238000285,14451,2608,0
11.895722211000248,27990,1232,0
11.899715712000216,10034,5313,3552
11.903407130000232,2240,1024,0
11.90673477900009,10242,1280,0
11.910681355000179,47883,5137,0
11.91444655100031,7777,2192,0
11.91765404600028,3840,5233,0
11.921609186000296,6881,6945,14915
11.925582731000304,4353,12082,0
11.928566286000205,3840,3824,48
11.932669049000197,10962,8370,416
11.93659716600041,20324,2464,0
11.939694931000304,5937,2752,0
11.943647161000172,1504,1760,608
11.946688582000206,2304,4113,0
11.950452575000327,48,10338,0
11.954591239000365,256,5601,2352
11.957573049000075,11010,1296,0
11.961571804000414,560,3104,800
11.965590509000322,1440,9474,2816
11.968659267000021,432,8962,0
11.972657618000085,5889,15411,0
11.976577231000192,9522,4337,2000
11.979744252000273,2672,22789,0
11.983488088000286,14179,9682,0
11.986500033000084,2128,3920,0
11.990434820000246,32,5137,2768
11.99442039700034,30791,4449,1056
11.998379426000156,19796,20468,0
12.001462769000227,4353,2976,0
12.005412464000074,208,3472,1392
12.00851448000003,0,1456,3744
12.012296717000027,2208,2304,0
12.016250163000223,1312,1792,4865
12.019287504000204,7793,9218,0
12.023204394000004,2752,96,0
12.026250263000293,3472,2336,0
12.030384615000003,1808,3984,0
12.033443700000134,0,2288,0
12.037419801000397,8754,4177,144
12.040411331000087,1216,6497,0
12.04346398000007,0,3024,0
12.04744126300011,5025,6433,1392
12.050476674000038,0,5153,0
12.054452884000057,14051,7249,0
12.058426525000414,7345,1888,0
12.061524278999968,0,3360,0
12.064452869999968,5793,8658,0
12.068382420000034,18740,9250,0
12.072477501000321,4705,8994,0
12.07541974600008,560,3792,0
12.07950705300027,2352,1904,7889
12.082545164000294,5297,3152,0
12.086458409999977,10498,3136,0
12.090518867000355,7185,5809,0
12.09369785700028,2144,3280,5281
12.097505963000003,8610,7425,8610
12.101660983000329,18100,19892,5425
12.105658812000001,11954,2032,0
12.108652467000411,4353,5937,0
12.112639525000304,2272,720,0
12.115786208000372,14355,2048,0
12.119700241000373,2256,2304,0
12.12275278900006,6049,688,0
12.126630920000025,0,7857,0
12.129753342000186,2352,3920,0
12.133512435000284,8450,2480,0
12.13662357000021,5985,2096,0
12.139677587000278,0,3072,0
12.143719309000062,4080,5809,0
12.147667916000046,400,1968,7505
12.150466680000136,0,1120,0
12.15463161100024,17956,2032,0
12.157755632000317,14739,1440,0
12.161597704000087,2352,3504,0
12.164680429000327,17412,2752,0
12.16865884500021,9202,5137,0
12.17182440400029,0,1872,1040
12.175635045000035,12291,2480,4097
12.179735822000112,17236,9698,0
12.183549350000249,8402,3072,10418
12.186663433000376,18532,7761,0
12.190712141000404,10066,2544,0
12.194651787000112,4353,6497,0
12.197679289000007,27862,976,8049
12.201712434000001,0,3088,0
12.20562686600033,5217,11922,11250
12.208610515000146,25046,1616,0
12.212685308000346,2576,7425,0
12.215757315000246,5025,4433,0
12.219587173000036,3408,4433,0
12.223684417000186,22501,5857,1776
12.22663381700022,1808,1072,0
12.230739503000223,5393,12595,4609
12.234674335000363,816,1616,3216
12.23761742700026,2640,1520,0
12.241639683000358,3936,2192,0
12.244652306000262,0,1872,0
12.248449483000059,2384,0,0
12.251618029000383,2544,2576,0
12.255667438000273,18612,1776,0
12.258573790000355,9138,1600,0
12.261754426000152,1296,0,0
12.265717307000159,1872,3840,832
12.269616444000349,4048,5169,0
12.272747747000267,0,3664,4657
12.276648774000023,6065,9906,0
12.279540213000018,0,2896,4865
12.28347661099997,4305,2976,18660
12.287396506000277,5137,2096,0
12.291375950000202,768,12787,4289
12.294508795000183,7521,9890,0
12.298430734000249,5217,5393,0
12.301606327000172,3616,2368,1536
12.305519199000173,6417,5889,4849
12.309390156000063,34536,13571,9826
12.313275444000283,6289,1984,0
12.316351233000205,15059,1248,0
12.320258443000057,4625,4337,0
12.323273542000152,4609,2352,0
12.327426818000276,0,10210,320
12.331421439000223,3248,2144,0
12.334436512000138,13091,3968,0
12.33842362400037,16980,2480,0
12.34151831500003,20244,1472,0
12.345334279000326,368,5889,112
12.349318277000293,7569,2304,0
12.352534039000147,5377,1424,0
12.356534613000349,3072,2512,0
12.359525596000367,8946,9394,3472
12.363537448999978,5505,5889,0
12.367528462000337,10498,9746,8402
12.371576061000269,10402,5473,11810
12.374583417000395,26518,2720,0
12.378437776000283,8690,8466,5425
12.382635425999979,36392,11826,2432
12.38673808700014,39945,12194,13347
12.390521670999988,8754,1328,3440
12.394672963000176,20885,2304,3088
12.398476426000343,21349,1040,0
12.401783454999986,23605,4753,32
12.405696162000368,10242,5425,0
12.40865356600034,4193,3296,0
12.412663806000182,672,6865,848
12.416482937000183,12018,3616,4817
12.420595588000197,17604,1104,0
12.423740866000117,4417,2816,8370
12.42770323800005,8610,608,7409
12.430565794000358,0,272,0
12.434565733,6945,2640,784
12.438632522000262,7505,2720,1568
12.441776004000076,3952,496,0
12.445536797000386,2528,2704,0
12.448645395000312,256,2416,1232
12.452681658000074,0,6913,0
12.45582602100012,2864,3152,3600
12.459739341000386,3344,12899,0
12.463603344000148,0,6241,3120
12.466699664000316,3984,3936,0
12.470658732000174,6049,1824,0
12.473673526000312,0,4337,0
12.477512802000092,11106,1632,0
12.480621791999965,12819,800,5889
12.484680485000354,400,4529,0
12.48779618000026,21013,4273,0
12.491616348000207,7537,12242,0
12.495576021000034,10786,27718,0
12.499415559000226,1696,1024,2816
12.502734075000262,8626,3328,0
12.506729251000252,256,1280,2784
12.50978362700016,1536,1808,0
12.513694670000405,2784,6049,0
12.516598585000338,1328,1232,0
12.520666598000389,3840,2992,0
12.52464905700026,4721,2672,1552
12.527641627000321,3488,6593,0
12.531542108000394,432,560,0
12.534733193000193,2240,3472,0
12.538537868000276,14051,608,0
12.54166182300014,6225,528,4865
12.545717556999989,7777,12595,0
12.549599785000282,4865,1136,0
12.552706398000282,192,816,0
12.556601089000196,5777,4913,0
12.559757854000054,2960,4593,624
12.563533053000356,5089,4369,0
12.566566505000083,80,912,0
12.57070536800029,16,11890,4833
12.574641583000357,1968,6945,6657
12.577528784000151,23205,3440,0
12.581461861000207,5793,19764,0
12.584553436000078,1792,1312,0
12.588450328000363,208,4369,0
12.591576753000027,6417,736,0
12.595449069000097,4016,2304,0
12.598464936000255,0,1856,0
12.602302029000384,2048,3760,0
12.60540701400032,816,1712,0
12.609302623000076,4609,1280,0
12.61233815200012,256,6609,1280
12.616300560000127,9602,528,0
12.61930172800021,2960,1792,0
12.623479787000178,5825,1328,0
12.62659751900037,736,2480,0
12.630563114000324,864,7649,0
12.63359494300039,112,0,3456
12.637503667000146,3856,3552,0
12.640576852000322,7985,4097,0
12.644566381999994,0,800,7921
12.647510551000323,17700,2240,0
12.651611278000019,4353,4257,480
12.655545419000191,18436,1104,4401
12.659532903000127,18900,4913,0
12.662618791000114,11858,6193,7265
12.666477387000214,26118,7889,2656
12.670580027000142,4097,9890,0
12.673663491000298,0,2704,1968
12.677705745000367,11490,1712,1024
12.681571034000171,160,4865,0
12.684788839000248,3568,18356,640
12.688578530000086,5857,2816,0
12.691672651000317,480,2144,0
12.695680487000118,7329,2976,0
12.699395555000137,7537,2544,0
12.702728217000185,752,6673,0
12.706620299000406,5073,1680,0
12.709738496000227,1344,4865,0
12.712809160000234,176,1280,0
12.71655059900013,3792,2208,0
12.720596553000178,2080,3232,0
12.723491178000131,624,2512,0
12.727681256000324,9730,4193,2592
12.730785020999974,2816,2336,0
12.734583659000236,11666,1344,336
12.738399226000183,1264,1040,0
12.741594128000088,4769,3328,0
12.745722199000284,2208,1424,2768
12.749462998000126,22485,3120,0
12.753632009000285,10242,2784,5777
12.757550233000075,12082,19444,12531
12.760715551999965,22309,560,13843
12.7645968060001,10386,7729,0
12.767610307000268,0,21365,0
12.771638072000314,11058,4289,0
12.775554858000305,4881,2544,1760
12.779648511000232,2304,1024,3616
12.782696398000098,0,11106,0
12.785553287000312,0,976,2464
12.789820220000365,6145,4321,3952
12.793594234000011,5265,5585,560
12.797566919000019,16692,2016,4593
12.801569554000253,6385,2608,3648
12.804579792000368,0,1120,0
12.807682776000092,6401,592,0
12.811654991000069,576,7585,944
12.815632998000183,8482,5329,0
12.818585552000059,9042,1584,0
12.822700992000136,2256,1600,3312
12.825744014000065,32,3840,0
12.829556863000107,2048,3056,3232
12.83339962800028,1088,3088,0
12.83666754900014,8802,1888,5569
12.840513841000302,1888,6929,0
12.843670050000128,1072,3328,0
12.847732859000189,5377,3920,0
12.85159564300011,11666,11410,0
12.85477083600017,28775,1024,0
12.858559013000104,5009,7009,0
12.862699633000375,32727,14387,1904
12.866526151000016,13091,9986,4353
12.869636771000387,8850,6449,0
12.873463850000007,18980,5121,0
12.876593369000148,10866,7425,0
12.880526050000299,4625,12403,3984
12.884492068000327,2272,1264,1504
12.888446700000259,2240,1328,0
12.89165526600027,4609,992,2320
12.895549988000312,6689,6305,176
12.89938378900024,1568,4657,0
12.902398529000038,0,12467,1488
12.906387367000207,5745,22037,3216
12.910348196000086,3056,1808,1280
12.914427826000065,1072,3952,1536
12.917661928000143,6833,6769,0
12.921608092000042,3696,112,6929
12.924632443000064,2448,2192,0
12.928511995999997,9778,2128,2928
12.932626135000191,1392,1952,5889
12.936560702000406,10402,1472,0
12.940574150999964,8562,19316,3840
12.94361901900038,4193,5617,25142
12.947539714000413,29927,2272,1072
12.951461590000235,5617,6497,96
12.955533611000192,11026,6177,8306
12.95842222500005,3104,1744,0
12.962587099000302,7633,17300,0
12.966388912000184,8466,1008,768
12.96964512400018,3584,5633,0
12.973639415999969,368,10562,800
12.977691608999976,256,1312,1168
12.980740530000276,64,8274,0
12.983620284000153,9986,976,0
12.987766463000298,11202,5201,0
12.991567469000074,0,3920,848
12.994628412000111,7393,10402,0
12.99850548700033,9986,3424,0
13.001829797000028,3040,784,9890
13.005551586000365,0,7393,0
13.00881392700012,10802,5489,0
13.012624770000002,6769,1616,0
13.015707837000264,3008,3024,0
13.019752295000217,7729,5681,576
13.023693810000168,6321,10354,0
13.027677428000061,1488,13059,9474
13.030810121000286,9058,8450,2720
13.034761763999995,1792,5153,2064
13.038507027000378,32423,352,0
13.04165829600015,1568,3504,0
13.045792798000093,13619,3632,4449
13.049673569000333,43434,2912,5633
13.052831912000329,6161,656,0
13.05675783100014,3712,4209,0
13.059808436000367,1792,704,0
13.063752366000244,2352,2464,112
13.06663720000006,0,3504,0
13.070790313000089,4689,5777,1296
13.074734956000157,1392,8786,272
13.078491854000276,15443,2496,0
13.081668827000158,4593,1200,0
13.085663428000316,10354,2928,0
13.088648537000154,17716,1024,0
13.09271723000029,0,4353,0
13.09577323800022,3520,1440,0
13.099527405000117,4305,4385,0
13.10278739100022,768,1888,0
13.106722985000033,8450,7409,8466
13.109829288000128,928,624,0
13.113734576000297,5457,2768,0
13.117538893000074,2800,2576,2640
13.12052927500008,5601,4064,0
13.124697445000038,6833,4113,0
13.127670134000255,0,3696,5681
13.131570213000032,6049,912,0
13.135545212000125,23285,1552,7761
13.138557751000008,9474,6961,0
13.142417019000277,0,1104,288
13.14564115200028,17188,3392,7281
13.149631995000163,15779,14675,2544
13.153593550000096,4417,4257,2832
13.157594835000054,16131,144,5889
13.161547917999997,22901,2304,0
13.164614488000097,688,9250,1584
13.168448803000047,15011,2576,12371
13.172349357000257,464,1728,0
13.175413117000062,1120,3504,880
13.17934015200035,6177,4305,0
13.183282089000386,3360,1744,0
13.186314912000398,816,1552,0
13.190233860000262,13955,3568,0
13.193328998000197,14835,96,912
13.19733830000041,1984,11186,0
13.201327236999987,7953,30439,720
13.204348202000347,5473,1616,0
13.207356805000018,0,1024,0
13.211348039000313,2912,7761,0
13.215315800000099,1776,6145,0
13.218318058000023,16644,1440,5857
13.222345834000407,560,4785,0
13.226335255000322,9746,11042,2864
13.230326005000279,13827,10594,48
13.233327689000362,15635,800,3616
13.237515367000015,4737,1280,1328
13.24128710900004,0,10706,0
13.244349953999972,4145,6273,4705
13.248232377000022,0,3824,0
13.251346189000287,15667,6705,0
13.255341542000224,624,11490,3632
13.259341882000172,19284,2128,3376
13.263323501000286,11602,10610,0
13.266353637000066,15363,1072,0
13.270313471000009,25862,2128,7889
13.273296650000248,1472,0,0
13.27728452600013,22549,10610,0
13.28129740500026,5377,7009,4177
13.284322872000303,3280,768,928
13.288295996000215,17140,3280,0
13.292302118000407,8450,2064,3984
13.296322272999987,21685,1136,5473
13.299366730000202,9618,4193,0
13.303576325999984,12963,16788,11634
13.307612051999968,11490,25766,3664
13.311433447000127,2592,6865,0
13.315326543000083,10242,944,3808
13.318338177999976,5809,1792,5345
13.322368805000224,6497,10914,2848
13.326358314000117,4000,2960,9074
13.329370327000106,0,8466,0
13.333364955999969,17364,6145,528
13.337346530000104,1568,0,6033
13.341321219000292,19972,7569,2208
13.344349281000177,5329,1024,3600
13.348312996999994,0,6513,6897
13.352345651000178,9442,1312,21621
13.356338072000199,1280,2848,1024
13.359398914000394,8482,5521,0
13.362410051000097,0,1712,0
13.366389904000243,9010,5521,2880
13.370374618000369,0,2048,544
13.373363727000196,5953,2352,0
13.377322852000361,4785,3040,0
13.38039324400006,0,3152,0
13.383417984000062,0,4273,0
13.387397515999965,5937,1584,2416
13.391381986000397,3296,11170,0
13.394368440000108,4721,4593,0
13.398619923000297,1712,1440,544
13.40161818300021,0,1808,0
13.405393926000215,9474,4577,1520
13.409623228000328,8097,1024,0
13.412650940000276,18132,2832,0
13.416623468000125,10242,4657,2128
13.420613912000135,10546,1552,0
13.423576236000372,4353,9554,96
13.427635667000231,20581,22021,0
13.431606317000387,1840,8482,2016
13.434572126000148,16163,8450,0
13.438450131000081,6353,10034,19892
13.442395456000213,4513,29655,9522
13.445398922000095,0,0,0
13.449399081000138,3600,2848,416
13.453375004999998,3296,3056,1024
13.456399350000083,9282,1616,0
13.460358169000301,3472,5553,0
13.463402707000114,0,1200,0
13.467356387000109,6001,464,0
13.470557016000384,1296,2080,0
13.474544600000172,2416,1952,3936
13.478359448999981,3696,3328,0
13.4815324340002,480,1856,0
13.484554205000222,0,6449,0
13.488440242000252,832,256,3184
13.491623647000324,6241,768,64
13.49558757800014,12531,10674,6305
13.499459441999988,0,6865,0
13.502769107000404,4353,1712,1792
13.50666447399999,0,4337,1568
13.51062685800025,25590,13475,0
13.513884666000195,11970,35512,0
13.517656069000168,40409,5969,0
13.521598526000162,288,28086,368
13.525753580000128,6401,15107,12723
13.529539760000262,37929,46507,10130
13.533737038000254,17332,17156,6897
13.536729425999965,288,4097,1808
13.540680132000034,8177,5617,7873
13.544608545000301,9186,8017,0
13.547678724999969,0,7521,0
13.551692791000278,10722,11858,9218
13.555683638000119,9010,3696,0
13.558621776000109,4016,2576,0
13.562772451,2720,7937,0
13.56567573700022,0,2048,0
13.568689532999997,7409,3680,0
13.572855107000123,10738,4625,4625
13.576813018000394,5249,5377,2224
13.580771565000305,6161,3408,784
13.584657741000228,30951,5537,5665
13.587700635000147,368,13235,0
13.591876728999978,4177,1584,10242
13.595712005000223,304,8177,0
13.59872769499998,9314,4721,1744
13.602829315000236,1760,6241,0
13.605764341000395,1456,4241,0
13.609921235000002,36392,13091,1264
13.613840792000246,192,6913,2576
13.617671647000407,7393,17652,64
13.621657893000247,5329,2560,2848
13.624893696000072,3280,3408,0
13.628562680000414,2512,2000,0
13.631790642000396,1904,5905,0
13.635638252000263,5073,3952,1248
13.639801936000367,19092,11938,0
13.642899344000398,14451,2816,0
13.64667414800033,6849,3424,0
13.649683537000328,3328,1680,0
13.65380406400027,3632,6769,0
13.656788196999969,7169,1280,0
13.660845971000072,3552,2384,0
13.664581464000094,7329,4897,0
13.667731871000342,2480,2832,0
13.671723516000384,13939,2560,2400
13.675649082000291,14355,9122,0
13.67871416700018,20581,1456,0
13.682567803999973,10146,5025,0
13.686647713000184,8530,7953,1696
13.689897004000159,14099,3680,0
13.69367574800026,5697,15923,0
13.697672740000144,15971,1104,7313
13.701745952000238,1312,4465,3024
13.7049663720004,4385,13155,4673
13.708596262000356,23813,13843,0
13.712793304000115,2208,6385,0
13.71572548300037,6801,2336,0
13.719551355000021,7969,2032,0
13.722643338000125,0,1568,12643
13.726613076000376,13811,4433,2464
13.730521694000345,7425,5697,0
13.733643340000071,7393,3984,0
13.737559303000126,7249,3216,0
13.740675467000074,10498,1504,0
13.74458798400019,2096,2528,0
13.748382518000199,6065,5825,0
13.751505095000084,6289,9554,0
13.755387579000399,5169,2928,0
13.758399362000091,10962,6449,0
13.762334078000094,2048,0,0
13.765371968000181,21157,8466,0
13.76969107800005,10674,1024,0
13.77361634900035,14579,1456,1968
13.776723497000148,4129,1600,0
13.78060649400004,2000,3024,5297
13.784548322000319,1360,1312,0
13.787647021000339,2816,1520,0
13.79034751800009,0,1360,0
13.79437220600039,0,7457,0
13.797334594000404,7473,2448,0
13.801347519000046,3152,1584,0
13.80431387300041,0,1936,0
13.807356533000075,5521,5857,0
13.811419286000273,18404,2208,0
13.815380406000259,1584,976,208
13.8184362410002,2256,992,0
13.822350152000126,8658,0,3536
13.825350508000156,0,1648,144
13.828393000000233,0,3104,0
13.83239390000017,38921,6065,3936
13.8363714420002,16996,12515,224
13.840346478000356,12082,3120,0
13.843374983000103,5409,1248,0
13.847365371000251,3056,7121,0
13.850357680000343,23813,352,0
13.85432905000016,6577,3888,0
13.858317220000117,14739,4401,0
13.861372384000333,39129,4657,4705
13.86534993100031,17156,6097,0
13.869374507999964,7713,2976,0
13.872431416000381,5873,2032,0
13.87640254300004,11282,944,0
13.879439308000201,7953,864,0
13.883393503000207,480,544,0
13.886410200000228,12947,3376,0
13.890393080000194,12034,1968,0
13.893433814000218,10578,2928,0
13.897382330000255,2064,7377,0
13.901353276999998,25926,1312,0
13.904385013000137,26630,4097,0
13.908347243000208,3456,624,0
13.911363662999975,12291,5393,0
13.915350761000354,6561,384,0
13.918372235000334,14691,992,0
13.922388092000347,3952,1808,0
13.925378400000227,10514,1440,0
13.929375926000375,25334,11634,1392
13.933358692000184,1824,7249,0
13.93637961200011,608,1360,0
13.940337316000296,7873,8161,0
13.944305195000197,34792,1968,0
13.953558388000147,2064,4449,3072
