time,emg1,emg2,emg3
0.004905923000023904,768,0,0
0.007952962000217667,2768,0,0
0.011946536000323249,160,2544,0
0.014935992000118858,3840,2512,0
0.018919604000075196,5089,2864,0
0.021919091000199842,112,1280,0
0.025883638000323117,8786,4209,0
0.02991417500015814,3536,2304,0
0.032931186000041635,3376,3024,0
0.036859963000097196,11490,2096,0
0.03991148500017516,368,2224,0
0.04290777200003504,0,1552,0
0.0472772520001854,3760,5393,0
0.04987824899990301,1280,2544,0
0.053878244000316045,8882,2368,0
0.05786638200015659,6161,1728,0
0.060866682000323635,2048,1936,0
0.06484090899994044,432,1936,0
0.06790495900031601,8946,3056,0
0.07092130699993504,0,2384,0
0.07486187700033042,4689,2064,0
0.07789305699998295,1584,2672,0
0.08183687800010375,0,5985,0
0.08489402300028814,1280,1792,0
0.08886360299993612,5953,768,0
0.09187368700031584,336,2080,0
0.09589804999995977,3936,3328,0
0.09888317800005098,1328,2672,0
0.10284504300034314,592,2672,0
0.10587090500030172,9042,2304,0
0.10984689399992931,2768,1488,0
0.11291400600021007,5281,1568,0
0.11688084400020671,6657,1904,0
0.11990229799994268,288,2000,0
0.1238765670000248,0,3744,0
0.1268615890003275,5873,2752,0
0.129909864000183,0,1648,0
0.13389350400029798,4705,2160,0
0.13691550600015034,7265,1840,0
0.1408721620000506,16,6305,0
0.1439151380000112,256,2784,0
0.1478803869999865,3568,3328,0
0.150885050999932,720,1648,0
0.15486359100032132,1552,1296,0
0.15791460300033577,2480,2736,0
0.1618663449999076,0,1568,0
0.16487073500002225,1792,2624,0
0.16881345499996314,7025,1024,0
0.17190976300025795,224,768,0
0.17583836099993277,3328,1328,0
0.1789085690002139,3856,3328,0
0.1819062340000528,0,1792,0
0.18590990000029706,3728,2064,0
0.18893080299994836,1744,1392,0
0.19304303500030073,5937,4897,0
0.1971120040002461,10898,2816,0
0.199968691000322,2800,2816,0
0.20309584400001768,0,2912,0
0.2071703599999637,3328,7441,0
0.2098907260001397,0,1776,0
0.2141470010001285,7425,1392,0
0.21705231800024194,7377,2672,0
0.2212013390003449,768,784,0
0.22394047800025874,0,2640,0
0.2270388219999404,6209,1936,0
0.23102616599999237,4000,3344,0
0.23492089100000157,4209,1584,0
0.2379969080002411,4881,2304,0
0.24104270900033953,96,2272,0
0.24500768100006098,768,4865,0
0.24807833900013065,4561,2096,0
0.2519831620002151,1840,5377,0
0.2550716949999696,4369,1312,0
0.25899357500020415,3344,3632,0
0.2619797259999359,0,1984,0
0.2659406319999107,1792,3152,0
0.2689353549999396,2224,1328,0
0.27290619399991556,5105,9218,0
0.27593300900025497,8113,3488,0
0.2799119209998935,96,5377,0
0.2828989290001118,0,1792,0
0.2871569379999528,6833,928,0
0.28984624000031545,2592,2736,0
0.2942020360001152,5633,1056,0
0.29718816200011133,6673,2448,0
0.3010974960002386,736,1280,0
0.30406244799996784,256,1856,0
0.30691294799999014,6929,368,0
0.3111573710002631,2352,2560,0
0.3151445580001564,5361,2048,0
0.31812197399995057,4048,2816,0
0.32118151500026215,0,2080,0
0.3251045280003382,1120,7841,0
0.32811759300011545,6433,2384,0
0.33201308500019877,3152,2976,0
0.3360877170002823,4000,2272,0
0.339062505000129,5681,3408,0
0.34294466600022133,752,2048,0
0.34613211000032607,6401,2336,0
0.3499786320003295,3344,1280,0
0.3531875779999609,4961,2608,0
0.35723774500002037,9042,1856,0
0.3602209620003123,1120,3440,0
0.3642494840000836,528,2576,0
0.36711361500010753,5601,1952,0
0.37109246099998927,352,2048,0
0.3741418839999824,2512,1328,0
0.3780528370002685,4785,2800,0
0.3810932100000173,0,800,0
0.3841886780001005,4529,3504,0
0.3880880410001737,8450,3536,0
0.39118151699994996,912,2080,0
0.39514524300011544,4032,6657,0
0.3982328000001871,3856,4097,0
0.4021532730002946,2928,4129,0
0.40596183500019833,2352,1040,0
0.40900755800021216,4737,5745,0
0.4129302410001401,2016,2480,0
0.4159287000002223,8738,3328,0
0.41987396300010005,2368,1936,0
0.42305023600010827,592,2288,0
0.42713027400031933,7633,1328,0
0.4298745430000963,208,1120,0
0.43408533000001626,4353,1424,0
0.43719169399992097,7073,2608,0
0.44099327100002483,720,1328,0
0.44411743299997397,976,3328,0
0.44807279099995867,8450,1552,0
0.45116375599991443,0,1824,0
0.45438228500006517,1536,2368,0
0.4583052430002681,4689,3904,0
0.46131037300028765,0,2640,0
0.4652356360002159,48,1280,0
0.4682704060001015,6401,1552,0
0.47199991000024966,80,1968,0
0.47523834200001147,3328,2592,0
0.47916778400031035,3488,3488,0
0.48211695100008,0,1456,0
0.4852883930002463,2240,2320,0
0.48912542500011114,4353,5681,0
0.49224878800032457,4145,1936,0
0.4963053410001521,6193,3760,0
0.5000919610001802,1552,1760,0
0.5030932909999137,224,2080,0
0.5072028530003081,8946,1488,0
0.5102040980000311,2048,1872,0
0.5142582460002814,8914,2960,0
0.5172575880001204,4353,2352,0
0.5202123730000494,0,1872,0
0.5242617859998973,0,5121,0
0.527315284999986,6401,1744,0
0.5311035750000883,1280,2304,0
0.5343819970003096,6721,2800,0
0.5382918889999928,7841,2256,0
0.5413856479999595,416,1776,0
0.5452883560001283,1040,1520,0
0.5481793859999016,5073,2064,0
0.5520756230002917,2160,8914,0
0.5551628500002153,1424,3152,0
0.5591581170001518,3728,2816,0
0.5621987190002073,480,1712,0
0.5661339540001791,11570,3344,0
0.5700407180002003,2048,1552,0
0.5732399550001901,3344,1792,0
0.5772536869999385,9522,1808,0
0.5801790939999592,0,1008,0
0.583214106000014,176,3088,0
0.5873352160001559,8450,5377,0
0.5902211080001507,1200,1904,0
0.5943235240001741,5345,3312,0
0.5981255710003097,5889,1184,0
0.6013891990000957,1808,1600,0
0.605023785999947,2800,2592,0
0.608210223000242,6625,2816,0
0.612302629000169,1488,1968,0
0.615380116000324,2784,880,0
0.6190425140002844,3152,2496,0
0.6223175889999766,224,672,0
0.6262213110003358,2816,1584,0
0.629082285000095,5377,2288,0
0.633050712000113,1824,288,0
0.6362739020000845,6705,3840,0
0.6400543750000907,768,1440,0
0.6432433439999841,464,3008,0
0.6471147699999165,5329,1968,0
0.6501702519999526,1456,1712,0
0.6542739490000713,5233,1792,0
0.6572143920002418,7601,2624,0
0.6612814660002186,336,1824,0
0.664390521000314,1456,2736,0
0.6680497030001789,7425,1136,0
0.6712139420001222,1536,2208,0
0.6750825220001389,4865,2400,0
0.6781777490000422,4097,2336,0
0.682031900000311,0,2160,0
0.6851233740003408,1776,1840,0
0.6890632540003025,3008,1536,0
0.6921354240002984,2912,2512,0
0.6960241159999896,4801,3072,0
0.6991429869999592,1712,1776,0
0.7029179700002715,0,2880,0
0.7059607149999465,5937,3040,0
0.7099462230003155,1696,1808,0
0.7129650330002733,7377,2288,0
0.7170224430001326,8818,2944,0
0.7200645220000297,1360,2816,0
0.7231454820002909,0,1760,0
0.7271137640000234,11314,4321,0
0.7311606840003151,736,2816,0
0.7340518119999615,5297,800,0
0.7381419369999094,6401,1280,0
0.7411666200000582,2048,2976,0
0.7450763480001115,1520,1280,0
0.7480677620001188,7121,1280,0
0.7521199259999776,432,1600,0
0.755085716999929,2960,3088,0
0.7591204710001875,3568,1056,0
0.7621919190000881,96,2016,0
0.766039087000081,2272,1296,0
0.7690421259999312,7745,2304,0
0.7730503830002817,4209,1120,0
0.7764081489999626,6401,2816,0
0.7801449900002808,2560,3184,0
0.783181180000156,0,1696,0
0.7871086929999365,5889,2000,0
0.7901697770003011,1696,2656,0
0.7941174649999994,4977,1280,0
0.7973392330000024,6945,2576,0
0.8002809790000356,0,2096,0
0.8042022019999422,368,6257,0
0.8071906720001607,6385,1616,0
0.8113041860001431,0,5873,0
0.814247622000039,6113,2128,0
0.8182999440000458,5617,2448,0
0.8212058960002651,0,1280,0
0.824963370000205,1040,2160,0
0.8282066310002847,5009,1744,0
0.8322092749999683,512,1408,0
0.8353406080000241,4241,1504,0
0.8392576139999619,4417,2048,0
0.8421320620000188,0,1968,0
0.845349153999905,2544,2272,0
0.8492340600000716,8786,3936,0
0.8522243980000894,800,1616,0
0.856067171000177,6033,5921,0
0.8593095650003306,2608,2208,0
0.8631861940002636,3920,3680,0
0.8670897830002104,5969,2112,0
0.870266292999986,2656,1488,0
0.874260010999933,6049,1536,0
0.8773753180003041,8370,1728,0
0.881247372999951,256,1552,0
0.8843322550001176,0,2000,0
0.8873893949999001,6065,1520,0
0.8911490049999884,0,5729,0
0.8943647650003186,7201,0,0
0.8982118950002587,6561,3856,0
0.9013465250000081,2816,2096,0
0.9052710350001689,2752,3632,0
0.9082365510003001,6033,3328,0
0.9121560960002171,2544,2512,0
0.9153536140001961,3376,1808,0
0.9191807510001127,2304,3072,0
0.9222528790000979,256,2336,0
0.9261229399999138,4289,1168,0
0.929384809000112,4193,2384,0
0.9330894600002466,4977,2720,0
0.9363421150001159,7169,1104,0
0.94009089400015,3920,2448,0
0.9433164780002699,496,1200,0
0.9472245110000586,4785,1632,0
0.9501850120000199,1024,1568,0
0.9540513120000469,6065,5345,0
0.9571947039999031,4577,1952,0
0.9610961450002833,3248,3632,0
0.9643804850002198,816,2816,0
0.968096770000102,8402,4641,0
0.9719616510001288,1168,2080,0
0.9750476600002003,2096,3472,0
0.9789599360001375,3312,1776,0
0.9820889440002247,352,2512,0
0.9851253310002903,0,1136,0
0.9890552020001451,2592,1328,0
0.9921217660003094,1664,1280,0
0.9959549140003219,4257,7585,0
0.9990217260001373,1600,1648,0
1.0029361130000325,3536,3840,0
1.0068147840001984,7537,2480,0
1.0099554769999486,3072,2304,0
1.0141430250000667,3824,1872,0
1.0169916580002791,6577,2912,0
1.0210987969999223,464,1632,0
1.0238933610003187,1552,2448,0
1.0281029110001327,6017,1872,0
1.0311724150001282,480,1792,0
1.035029922999911,4865,2816,0
1.0381621770002312,4865,3408,0
1.0421286290002172,1072,1232,0
1.0451495219999742,3488,2384,0
1.0491131560002032,1904,2560,0
1.0521618679999847,1104,1232,0
1.0562152239999705,3760,736,0
1.0591980750000403,2928,3328,0
1.0629959749999216,0,1840,0
1.0661209509999026,2128,2816,0
1.0700700340003095,2384,3296,0
1.073194686000079,2240,2592,0
1.0770496330001151,10098,2224,0
1.080141346000346,688,1344,0
1.0840589260001252,224,1104,0
1.0872907160000977,6369,2224,0
1.0910628139999972,976,3376,0
1.0941251429999284,8978,832,0
1.0982112360002247,7345,2288,0
1.1012653289999434,160,2208,0
1.1051719900001444,1072,1136,0
1.1082657430001746,5041,1040,0
1.112250000000131,944,1248,0
1.1153883110000606,2560,1984,0
1.1191875380000056,2976,2192,0
1.1223434769999585,0,1680,0
1.126126258000113,1760,2272,0
1.1293453100001898,4865,2304,0
1.133127290000175,2576,1264,0
1.1362850750001598,4353,2304,0
1.1400940789999368,2400,2464,0
1.143253409999943,400,2752,0
1.1472516680000808,5377,2688,0
1.150238748999982,800,1888,0
1.1542948340002113,5937,1456,0
1.1573856760001036,6401,1968,0
1.161224785000286,512,912,0
1.1643406230000437,336,3840,0
1.168092101000184,6145,1760,0
1.1711990110002262,1456,1392,0
1.1751285590003135,4657,1680,0
1.1783703539999806,4833,1728,0
1.1813372659999004,0,1456,0
1.1852385420002065,3312,4337,0
1.189196228000128,5729,2384,0
1.1922975980000956,3488,3328,0
1.196094173000347,1808,2288,0
1.1992816800002402,2816,3280,0
1.2024731690003136,0,1296,0
1.2063492980000774,2624,5249,0
1.2093880120000904,3840,1504,0
1.2132085040002494,6801,3712,0
1.2171533760001694,8386,1184,0
1.2201767120000113,1808,2528,0
1.223342206000325,0,1984,0
1.2272822220002126,3984,6513,0
1.230238872999962,272,2640,0
1.2342597390002084,7473,8145,0
1.2372477700000672,6401,2000,0
1.2412822740002412,0,4913,0
1.244369266999911,320,2752,0
1.2482840249999754,7009,1232,0
1.2510350940001445,0,2160,0
1.2542924889999085,7857,2384,0
1.258330553000178,5889,3856,0
1.2614032740002585,0,2064,0
1.2651102270001502,192,1280,0
1.2681663060002393,6241,1760,0
1.2720824110001558,992,1936,0
1.275191396000082,2784,1824,0
1.279065587000332,3840,3104,0
1.2821603600000344,0,2272,0
1.2860801420001735,2608,2160,0
1.2891569460002756,4321,3328,0
1.2930988090001847,1744,2288,0
1.2960773610002434,3856,1888,0
1.299966102000326,1232,2304,0
1.302970075000303,0,3120,0
1.3068959760003054,6273,1296,0
1.3099539049999294,1280,3120,0
1.3141213300000345,3328,1792,0
1.3171887819999029,8370,2096,0
1.3210674750002909,560,2064,0
1.3241428280002765,784,2704,0
1.32811562400002,6705,2640,0
1.3311760240003423,0,1968,0
1.3341899860001831,3472,2656,0
1.3381551350003065,7601,5089,0
1.3409177650000856,0,1792,0
1.34513620000007,832,880,0
1.3480492050002795,7697,2064,0
1.3521047070003078,1040,2160,0
1.3551692650003133,2608,3152,0
1.359048943000289,3520,1280,0
1.362207464000221,0,2384,0
1.3662418630001412,1920,2336,0
1.3691249769999558,4129,1024,0
1.373105613000007,1536,2608,0
1.37638936500025,7425,1392,0
1.3802968390000387,1024,2336,0
1.383341374000338,256,2608,0
1.387290774000121,4449,3232,0
1.3903715460000967,720,1728,0
1.3942741470000328,3840,2304,0
1.3971874180001578,7953,2768,0
1.401264932000231,80,2704,0
1.4043731870001466,224,3104,0
1.4082692199999656,7425,2032,0
1.4113736240001344,1056,1456,0
1.4151425180002661,5585,2304,0
1.4183526199999505,5057,2352,0
1.421296526000333,0,1616,0
1.4253213420001885,5377,2928,0
1.4292023830003018,5089,2816,0
1.4323609580001175,3136,3072,0
1.4360330049998993,2736,2352,0
1.439254326000082,2608,2304,0
1.4432491790003041,304,1456,0
1.4463847720003287,5265,1968,0
1.4501239920000444,2464,2736,0
1.4533114640003078,2320,2464,0
1.4572589350000271,7057,3408,0
1.46038042400005,1296,1600,0
1.4640779680003106,0,2864,0
1.467216978000124,9234,2192,0
1.470236949000082,0,1792,0
1.4743218130001878,4449,7921,0
1.4774195439999858,6673,2784,0
1.4811393240001962,3920,2816,0
1.484238321000248,752,3376,0
1.4883332480003446,7649,5521,0
1.4913869110000633,0,1792,0
1.4951823179999337,3408,1952,0
1.4983924960001787,3824,1152,0
1.5020993880002607,0,1840,0
1.5053662489999624,1888,1744,0
1.5092354960002012,7745,1600,0
1.5123528500002976,688,2336,0
1.5162798230003318,4465,2064,0
1.519434578000073,2640,2992,0
1.522262965000209,0,2768,0
1.5261802919999354,7649,3040,0
1.5300793670003259,6033,2176,0
1.5333131910001612,4353,2208,0
1.5372366690003219,11250,2672,0
1.540319572000044,896,928,0
1.5442296690002877,256,2400,0
1.5473088389999248,7681,2816,0
1.550281147000078,688,2000,0
1.554191589000311,5137,2400,0
1.5581950989999314,6449,2608,0
1.5613420919999044,608,736,0
1.5642133770002147,432,2096,0
1.5681224200002362,4689,9266,0
1.571194337000179,528,1824,0
1.5750919880001675,3952,8786,0
1.578220352000244,4593,1904,0
1.5820999669999765,4929,4000,0
1.5859818409999207,1264,1680,0
1.5891320489999998,5793,3504,0
1.5930393020003066,288,1824,0
1.5960522770001262,8562,3840,0
1.5999211530001958,2720,2688,0
1.6029839940001693,656,1376,0
1.6068965419999586,6145,1776,0
1.6099460030000046,3344,2640,0
1.6140482300002077,6945,2112,0
1.6171346510000149,9250,2400,0
1.621134944000005,1200,2704,0
1.6241370960001404,0,2688,0
1.6280342039999596,5377,2896,0
1.6311289810000744,2544,2592,0
1.635085891000017,5825,1344,0
1.6381475739999587,5377,3072,0
1.6411032770001839,0,1872,0
1.6450420430001031,2848,4545,0
1.6481834530000015,5121,3488,0
1.6520090680000976,4097,2976,0
1.6561141370002588,2224,1440,0
1.6590761620000194,3952,4273,0
1.6622290740001517,0,2416,0
1.6662620030001563,3040,6865,0
1.6691772590002074,5393,3392,0
1.6731487520000883,6401,2656,0
1.677229324000109,7169,1200,0
1.6802117040001576,2576,2816,0
1.6842019470000196,288,2864,0
1.6873436169998968,6993,1360,0
1.690284991000226,0,1792,0
1.694292334000238,9234,2848,0
1.6973466640001789,7521,2624,0
1.7012489560001995,256,5361,0
1.7044171299999107,1152,2288,0
1.708309329000258,7121,7889,0
1.7114010959999177,912,1856,0
1.7152601350003351,4577,0,0
1.7181982720003361,3360,2816,0
1.7212645630002044,0,1968,0
1.725180297999941,6641,3376,0
1.7290565369999058,5745,1792,0
1.7322242850000293,2976,3024,0
1.736097037000036,3328,1920,0
1.7392431719999877,3312,2320,0
1.7422654550000516,0,2544,0
1.7461625280002409,2528,4961,0
1.749297935999948,3808,1520,0
1.7530998910001472,4257,3344,0
1.7570464450000145,10338,2128,0
1.7601581120002265,1552,2672,0
1.7642300460001934,496,1536,0
1.7671997050001664,7169,2304,0
1.7702872700001535,0,2032,0
1.7742599220000557,8754,3936,0
1.7781462749999264,7425,1600,0
1.7812479740000526,2048,2960,0
1.7841394229999423,0,1232,0
1.7882483150001462,6161,2544,0
1.791300696000235,0,1456,0
1.795199550000234,4561,1840,0
1.798334690000047,4641,2944,0
1.8013969749999887,0,1984,0
1.8053045540000312,3376,2896,0
1.8090472789999694,5569,2224,0
1.8122946670000601,2080,2304,0
1.8162598160001835,4945,1456,0
1.8193932819999645,3568,3152,0
1.8222362520000388,0,1632,0
1.826314793000165,6769,3840,0
1.8301776100001916,4561,1936,0
1.8331555120003031,2976,2064,0
1.8371795580001162,8674,2768,0
1.840008773000136,0,1104,0
1.8432021120001991,0,2928,0
1.8471744540001964,4833,1296,0
1.8502217710001787,1376,1792,0
1.8542708929999208,3840,2752,0
1.857341081999948,8882,2336,0
1.8611645660002978,176,1968,0
1.8641416690002188,0,2464,0
1.867994419000297,6577,1968,0
1.8711519369999223,2304,2640,0
1.8750193440000658,5121,3792,0
1.878160319000017,4625,1424,0
1.8811959540003045,0,2032,0
1.8851213450002433,6145,5633,0
1.8890227360002427,3584,2640,0
1.8921292959998937,2144,3264,0
1.8959725620002246,2880,2128,0
1.8990062689999831,3344,3152,0
1.9020117540003412,0,2304,0
1.9059491719999642,3120,9490,0
1.9089736569999332,3648,2240,0
1.9130194940003094,4000,2416,0
1.9171216730001106,8386,2720,0
1.9201600320002399,2288,2672,0
1.923113720999936,0,2656,0
1.9271490520000043,3872,2048,0
1.9298818470001606,1104,1520,0
1.9341614630002368,5089,5281,0
1.9380992320002406,5889,1328,0
1.9411818640001002,3088,3072,0
1.9440836150001815,0,2816,0
1.9480444220002937,4433,1440,0
1.9511979230001089,768,1536,0
1.955009209000309,5745,1872,0
1.9582064999999602,4753,2528,0
1.9620458640001743,512,5233,0
1.9651992009999049,1376,2304,0
1.9690806590001557,4097,1792,0
1.9722882340001888,2528,2048,0
1.9763824360002218,4849,6145,0
1.9800464280001506,2096,2976,0
1.983283431000018,1328,2896,0
1.987017962000209,4753,1232,0
1.9901558609999483,3136,3840,0
1.9940290370000184,6385,1280,0
1.997152312000253,8562,2128,0
2.0002415280000605,0,1200,0
2.004107288000341,4561,5377,0
2.0079798219999248,3600,2576,0
2.011080893000326,1792,2656,0
2.015023528000256,6865,1312,0
2.017998078000346,6833,3792,0
2.0218916900003023,544,2000,0
2.0249461830003384,1792,2160,0
2.0288786390001405,6097,2592,0
2.0319041780003317,1248,2016,0
2.0358756939999694,2352,1168,0
2.0388876080000955,3360,3104,0
2.0428521690000707,272,3312,0
2.045910403000107,5345,2400,0
2.049860307000017,3088,2416,0
2.0529316130000552,4321,3344,0
2.0568783850003456,10498,4529,0
2.0599112760000935,1296,1392,0
2.063877118000164,2448,5297,0
2.067840149999938,6145,1792,0
2.070845925999947,112,2640,0
2.0748384270000315,6033,1648,0
2.077872033999938,5649,2976,0
2.0808908100002554,0,1680,0
2.084860010000284,0,9378,0
2.0878809780001575,9058,2224,0
2.0908934340000087,0,2544,0
2.0948634609999317,5873,4353,0
2.098844857000131,4353,2784,0
2.10188030900008,2096,3568,0
2.1048684580000554,0,3360,0
2.1088275310003155,4177,240,0
2.1118986070000574,832,656,0
2.1158228449999115,3280,3328,0
2.118916972000079,3568,2736,0
2.1230240550003145,48,3040,0
2.126076821999959,4945,2560,0
2.129907208000077,5409,2304,0
2.132927641000151,4977,1792,0
2.1368611010002496,9058,3632,0
2.1399265680001918,1792,2560,0
2.1438173700003063,0,2848,0
2.146875476000332,9042,3088,0
2.1508228970001255,1248,1760,0
2.1540618060003,7169,2160,0
2.158107031000327,6385,2576,0
2.1608881730003304,752,2480,0
2.1648385860003145,736,1712,0
2.1678442970001015,6033,1280,0
2.171841226000197,1376,1872,0
2.1748763710002095,3328,1376,0
2.179084525000235,4113,1888,0
2.1821209830000043,0,2112,0
2.185837379000077,4545,1952,0
2.1888662460000887,6929,3856,0
2.1928407390000757,2096,1376,0
2.1958725019999292,5425,2064,0
2.1998432610002965,1296,1616,0
2.2028922530003,608,2416,0
2.206835178000347,7473,2464,0
2.20988231299998,1072,1584,0
2.2138265250000586,5329,2272,0
2.2169113380000454,6641,2480,0
2.2208981310000127,1184,2304,0
2.2239015780000955,0,2720,0
2.227868603999923,6401,1136,0
2.2308977170000617,976,1856,0
2.2348683390000588,6209,2256,0
2.2378677720002997,4817,2800,0
2.24090821100026,0,1216,0
2.244882250000046,240,4129,0
2.2479989779999414,6193,1520,0
2.2519344940001247,1312,4305,0
2.256105394000315,3728,1744,0
2.258806478000224,4064,3184,0
2.2621722339999906,0,2640,0
2.2660444279999865,1136,2720,0
2.269139168000038,5969,2512,0
2.273102597000161,4080,7425,0
2.276229371000227,4625,1808,0
2.2798986550001246,4961,4897,0
2.283096859000125,208,3008,0
2.287140808999993,7633,5329,0
2.2899088879999,272,2304,0
2.2941551750000144,6465,3440,0
2.297164606000024,7393,2016,0
2.300971736000065,3024,3920,0
2.304217243000039,512,2080,0
2.3080224250002175,11186,3232,0
2.3113215610001134,0,2320,0
2.3152258600002824,6145,8962,0
2.3184340220000195,3344,2416,0
2.3222203410000475,2976,4097,0
2.325258705000124,2416,480,0
2.3293032360002144,10210,4000,0
2.33312843900012,6577,2416,0
2.33613232100015,37321,3584,0
2.3400992760002737,2048,3168,0
2.343333767000331,17396,3088,0
2.34731334900016,2032,6369,0
2.3501551630001813,8866,2256,0
2.3540942049999103,7089,4433,0
2.3581310770000528,8962,3408,0
2.361254383999949,3328,2912,0
2.3651745870001832,1680,1232,0
2.368243096000242,8738,1792,0
2.3721116420001636,1360,1424,0
2.375258373000179,3456,1504,0
2.379279654000129,3296,2512,0
2.3821834370000943,256,2880,0
2.385962060000111,976,1712,0
2.3892725320001773,6417,2064,0
2.3930722250001963,2304,1040,0
2.3963368899999296,4161,1680,0
2.400067288000173,2544,2352,0
2.403337479000129,48,1824,0
2.407223506000264,5857,1536,0
2.410155808000127,1568,2304,0
2.4142517450000014,4289,2928,0
2.4172113720001107,7121,2288,0
2.4212435350000305,608,1072,0
2.424188998000318,336,1696,0
2.428074922000178,6913,1280,0
2.4311420020003425,0,1024,0
2.4349514580003415,5617,2336,0
2.4381967320000513,7281,2768,0
2.4413512370001627,0,1520,0
2.4451395260002755,1280,2944,0
2.4483487390002665,4353,2448,0
2.4520303730000705,1008,5937,0
2.455887539000287,1392,3488,0
2.458981553000285,5169,4305,0
2.462011158000223,432,1968,0
2.465903371999957,3968,4401,0
2.4698140340001373,5009,2272,0
2.472899532000156,2768,3008,0
2.476805694000177,8642,2400,0
2.4798593360001178,2544,2576,0
2.482879040000171,0,2320,0
2.486845624000125,9058,3952,0
2.4898663080002734,0,1520,0
2.493838741000218,5889,2912,0
2.496872817000167,7217,2048,0
2.50081382999997,1552,928,0
2.5038750399999117,688,2352,0
2.507854836000206,6049,1792,0
2.5108683460002794,0,1632,0
2.5148421339999913,5441,1360,0
2.517828061000273,6657,3840,0
2.521812733999923,240,2400,0
2.5248521640000945,1792,1584,0
2.5288356030000614,5409,2320,0
2.5318650770000204,2560,2816,0
2.5358404110002084,3232,1744,0
2.538870522000252,3872,3328,0
2.542842051000207,0,2640,0
2.545839356000215,4705,2368,0
2.5498482160001004,3312,2544,0
2.5528550620001624,2864,2576,0
2.5568079970003055,7281,2544,0
2.5598810960000264,1792,2960,0
2.563816938999935,0,3072,0
2.566813031000038,9218,2816,0
2.5698770310000327,352,864,0
2.5740776110001207,6561,4801,0
2.577116409000155,8177,1712,0
2.5811053830002493,3696,3504,0
2.583868958000039,0,2592,0
2.587919761000194,5409,2928,0
2.5913242930000706,560,1552,0
2.5951179850003427,4881,2544,0
2.597967212000185,5633,2304,0
2.6018456290003087,0,1792,0
2.605072188000122,672,3344,0
2.608993873000145,5889,1296,0
2.6121274619999895,1792,2816,0
2.616003419000208,768,2304,0
2.618916912000259,5073,2144,0
2.6221593079999366,0,2640,0
2.6261398530000406,1280,6913,0
2.629205356000057,4721,2144,0
2.633131816000059,7297,3408,0
2.6370903450001606,6177,1312,0
2.640138585999921,3664,3840,0
2.644053621000239,304,1440,0
2.6473012540000127,6497,3312,0
2.651192619000085,944,2240,0
2.6542137720002756,7137,3664,0
2.6582138040002974,7713,2800,0
2.661353182000312,1024,2352,0
2.664254402000097,0,2528,0
2.6681827110000995,6625,7201,0
2.671337591000338,336,2960,0
2.6751106880001316,6001,5889,0
2.678372701000171,5009,1744,0
2.682290557000215,4961,4257,0
2.6860772570003064,3488,2048,0
2.689163423000082,9554,3136,0
2.693285595999896,2048,2768,0
2.696183479999945,3344,2912,0
2.7000784159999967,2816,2368,0
2.703227555000012,608,1360,0
2.7072032089999993,7249,2288,0
2.710143750000043,1984,2144,0
2.7141102210002828,3328,1456,0
2.717249317000096,8802,2560,0
2.7212683560001096,1024,1792,0
2.7243240830002833,112,2288,0
2.728099489000215,6561,1888,0
2.7311693540000306,0,768,0
2.7349561500000164,3056,2000,0
2.7381796690001465,7633,2720,0
2.7411276090001593,0,768,0
2.7449252920000617,656,4177,0
2.7479886450000777,8402,1696,0
2.7518886640000346,1088,1280,0
2.754972066999926,4097,1280,0
2.758881112999916,4225,1648,0
2.7619102980002026,112,1024,0
2.7660835280003084,2192,2384,0
2.768889099000262,5393,2480,0
2.7730276269999194,2528,768,0
2.776137243999983,5105,2304,0
2.7799076230003266,3856,8049,0
2.783082598999954,0,2464,0
2.7870808510001552,5217,2416,0
2.7899172850002287,3216,1872,0
2.7941560730000674,3760,2304,0
2.797086364000279,8129,3408,0
2.8011434300001383,1056,1488,0
2.8041343540003254,432,2144,0
2.8078058270002657,5233,1744,0
2.8111524159999135,0,784,0
2.8150332959999105,4865,2752,0
2.8180968950000533,7217,3232,0
2.822069276000093,592,1280,0
2.8250212490002014,1792,2736,0
2.8290927020002528,6257,1264,0
2.832011397000315,768,2304,0
2.8361043009999776,2064,1456,0
2.8391950870000073,4561,3824,0
2.842355341000257,0,1200,0
2.846143256000232,880,4561,0
2.849180567000076,6065,2784,0
2.8530884410001818,2320,6097,0
2.8562461300002724,4209,1744,0
2.860081791000084,3376,2816,0
2.8632396080001854,0,2064,0
2.8671780200002104,3504,1552,0
2.870178324000335,2272,1920,0
2.8742589690000386,6417,6577,0
2.8772203779999472,9266,3680,0
2.8810002810000697,0,4529,0
2.8842728909999096,320,1856,0
2.888196938999954,6657,2288,0
2.8913327690002006,1008,1568,0
2.8951049970000895,6401,2384,0
2.8983452070001476,6161,2976,0
2.9020261180003217,0,1312,0
2.905153552000229,656,3024,0
2.9089792479999232,8690,2160,0
2.9122647409999445,1808,2608,0
2.9160856290000083,2064,2304,0
2.919134880999991,4465,2464,0
2.9224093780003386,0,2224,0
2.9261562000001504,4929,5121,0
2.9299915080000574,5473,1456,0
2.933183612999983,2576,3312,0
2.9370132819999526,6913,2288,0
2.9401107819999197,2080,2272,0
2.944091758000013,256,2224,0
2.9470915249999052,6497,2304,0
2.951237776000198,1136,1904,0
2.9542369730002065,2848,2432,0
2.958247168000071,9106,4000,0
2.9613774419999572,1568,2320,0
2.9650827250002294,0,1792,0
2.9682208630001696,7985,2448,0
2.9712299170000733,0,1312,0
2.975148341000022,5681,8033,0
2.978262352999991,6593,2400,0
2.9819943610000337,0,5153,0
2.9850234360001195,960,2304,0
2.9892149669999526,5521,2640,0
2.992331349000324,1840,1968,0
2.996004711000296,2656,1008,0
2.999136498000098,4497,3328,0
3.0030213150002965,0,1968,0
3.006152702000236,4609,2128,0
3.0100495130000127,3152,3632,0
3.013193795999996,5377,1760,0
3.0171798040000795,5921,3024,0
3.0200881240002673,1680,2832,0
3.0239935080003306,624,2784,0
3.0271717139999055,6065,2864,0
3.031017534000057,704,2560,0
3.034108113000002,5617,2240,0
3.0379611550001755,8370,3680,0
3.040981080000165,768,1696,0
3.0448843310000484,0,3936,0
3.047918469000251,9282,2288,0
3.0509210019999955,0,1648,0
3.0548289690000274,8386,2304,0
3.058383963000324,5361,2832,0
3.062027023000155,0,7825,0
3.0650508379999337,848,2560,0
3.0689954070003296,5985,1776,0
3.072197148000214,288,2640,0
3.076080028999968,2384,1792,0
3.0793212870003117,5553,2480,0
3.0830969650000952,112,1808,0
3.086145403000046,2832,3776,0
3.0900938680001673,2576,2864,0
3.093256002000089,5457,2336,0
3.097241850000046,6065,3888,0
3.1002173400001993,1712,2880,0
3.104097536000154,0,1392,0
3.1073187420001886,7681,2032,0
3.111245601000064,1328,2048,0
3.114101225000013,5777,2816,0
3.118106424999951,8386,2512,0
3.121173386999999,1104,1440,0
3.1251657689999774,0,3424,0
3.128203083000244,7121,2048,0
3.131259904000217,0,2048,0
3.1350731940001424,8802,2064,0
3.1382349300001806,6401,2928,0
3.142130791999989,4545,4593,0
3.145403369000178,2128,3648,0
3.149169257000267,8418,3488,0
3.1530443010001363,1584,2592,0
3.156392854999922,2880,2992,0
3.160148708000179,3104,3184,0
3.163228139000239,1040,3168,0
3.167145295999944,5969,1280,0
3.170171694000146,2784,1536,0
3.174081197000305,4113,2448,0
3.177148356000089,7073,2160,0
3.181238239000322,272,688,0
3.1842061790002845,1120,2048,0
3.1882818960002623,5777,2384,0
3.1912452000001394,1184,2112,0
3.195294675000241,4817,2224,0
3.1983591560001514,6481,3200,0
3.202054207999936,0,6609,0
3.2053190100000393,224,3328,0
3.2092285640001137,5649,3824,0
3.2122137030000886,272,2304,0
3.216113562999908,3184,2016,0
3.219161991999954,3680,2576,0
3.223091346000274,384,2048,0
3.2262986690002435,2912,2624,0
3.2300076880001143,5169,3584,0
3.233149297000182,2624,1792,0
3.237240361000204,9074,2576,0
3.2401899579999736,1904,2000,0
3.2442606110003,368,3488,0
3.247361273000024,5377,2768,0
3.251008818000173,0,1776,0
3.254333685000347,5041,1888,0
3.2580244480000147,8818,2688,0
3.2610854859999563,0,1872,0
3.2643060010000227,0,496,0
3.2681136989999686,7185,2224,0
3.2712785600001553,0,1376,0
3.274397068000326,7873,2768,0
3.278237702000297,6801,5281,0
3.2813951470002394,768,1440,0
3.2850220320001426,944,4961,0
3.2883556530000533,8450,1872,0
3.292266997000297,0,5585,0
3.2952403290000802,4449,1728,0
3.2991154470000765,5633,3472,0
3.30214587699993,80,2560,0
3.3060408230003304,2304,1328,0
3.3091465640000024,4865,1600,0
3.313055624000299,2448,1920,0
3.3161573110000973,4401,1088,0
3.3200636569999915,2864,2304,0
3.323142528000062,0,2304,0
3.327024708999943,5841,2000,0
3.330096378000235,3840,2576,0
3.333967424000093,4080,3056,0
3.336963192999974,10162,3344,0
3.340913948999969,1376,1504,0
3.3439353310000115,304,2784,0
3.3479808400002184,3360,4353,0
3.351161083000079,1552,1440,0
3.3553011750000223,6625,7153,0
3.3582413570002245,7377,2608,0
3.3622998430000735,4273,3840,0
3.3661094809999668,1888,1792,0
3.3690430330002528,7025,3840,0
3.373174494000068,1792,1776,0
3.376319262999914,2352,3072,0
3.380005683000036,1728,3264,0
3.383199445000173,0,2448,0
3.3864457499998935,2976,1456,0
3.3901255929999934,7713,3840,0
3.3932524589999957,2304,416,0
3.397165026000039,6481,4625,0
3.4010647180002707,1504,2784,0
3.4041491769999084,1504,3072,0
3.4080426610003087,7377,736,0
3.4113285270000233,2112,4097,0
3.415205865000189,4097,1488,0
3.4181356710000728,6737,2864,0
3.421387893999963,0,2000,0
3.425229805000072,0,5521,0
3.4281888139998955,7089,2288,0
3.432046657000228,848,512,0
3.435131984000236,5857,3744,0
3.438991517999966,4881,2608,0
3.4423083589999806,0,1776,0
3.445367744000123,1712,2112,0
3.449288359000093,8033,5073,0
3.45215873799998,912,1584,0
3.456262653000067,5681,3008,0
3.4599915220001094,3120,2880,0
3.463151222000306,2000,3280,0
3.4670442900001035,5217,1744,0
3.470174860000043,4177,2816,0
3.4742539220001163,2816,1568,0
3.4771393470000476,10994,2640,0
3.4813030049999725,2304,2640,0
3.4841928089999783,32,928,0
3.4880220830000326,6705,1888,0
3.4912988820001374,1680,3200,0
3.495021442000052,5073,3616,0
3.4981169760003468,6689,2048,0
3.502079872000195,688,2560,0
3.505349841000225,1232,2592,0
3.509279552999942,5377,3152,0
3.512373261999983,1424,1984,0
3.5161292480001975,6385,2304,0
3.5192434569999023,3120,2528,0
3.5232440419999875,256,6753,0
3.526328838000154,3136,1792,0
3.5300960059998943,5681,7937,0
3.5332307250000667,2352,1280,0
3.5372469419999106,9778,4449,0
3.541202713000075,3328,2512,0
3.54426901800025,560,3472,0
3.547331070999917,7473,2160,0
3.551298296999903,2256,2880,0
3.5550862750001215,4817,1968,0
3.558078929000203,6321,2784,0
3.561388013999931,256,768,0
3.5652746129999286,4913,4657,0
3.56895995900004,6961,2080,0
3.5721932810001817,992,2832,0
3.5759914949999256,2368,3840,0
3.5791704450002726,5569,3296,0
3.583053593999921,736,2720,0
3.58606186399993,3424,2352,0
3.589966514000025,4961,1840,0
3.5931824180001968,1568,1520,0
3.597157093000078,5601,1392,0
3.6001072270000805,2512,3328,0
3.6039526230001684,576,2560,0
3.6070740360000855,7713,1248,0
3.6110359290000815,3376,2320,0
3.61414261300024,7009,3600,0
3.618044376999933,8914,4401,0
3.621040045999962,0,2816,0
3.6241383070000666,0,2816,0
3.62804264100032,5121,2000,0
3.630982464000226,0,1600,0
3.6349199220003356,8626,2656,0
3.6378945100000237,7393,2896,0
3.6418299290003233,464,992,0
3.6448582880002505,1680,2544,0
3.6489453140002297,8418,1808,0
3.652045715999975,256,1424,0
3.6560125890000563,3184,2112,0
3.6590385459999197,3920,2768,0
3.6630293220000567,496,1808,0
3.6660428919999504,1024,2320,0
3.669838620000064,4929,2288,0
3.6730245130002004,4000,1744,0
3.677010553999935,4897,3168,0
3.679829486000017,1136,1872,0
3.683964242000002,256,1424,0
3.687152236000202,4353,3040,0
3.691165722000278,240,2064,0
3.6941109809999944,5409,2384,0
3.698136412000167,9234,3376,0
3.7011398940003346,1456,2528,0
3.7050087490001715,144,7761,0
3.7082095170003413,7057,2448,0
3.712097668000297,16,6385,0
3.7153447450000385,5377,2592,0
3.7191325430003417,5153,4353,0
3.7221956920002413,0,2160,0
3.726188282000294,864,1888,0
3.729176132000248,9378,2144,0
3.732368471999962,256,2016,0
3.736174748999929,4385,1984,0
3.7399399320001976,2624,2336,0
3.7431467490000614,1824,3344,0
3.7472214140002507,3424,2400,0
3.7501591660002305,3040,3616,0
3.75414948200023,2928,1024,0
3.75725512300005,10834,3472,0
3.761107283000001,0,2736,0
3.764054795999982,944,1344,0
3.768146986999909,5361,5873,0
3.771233878000203,624,1840,0
3.7752334280003197,4000,2416,0
3.7782954670001345,7889,2736,0
3.7813660110000455,0,1584,0
3.7850547520001783,0,6513,0
3.7881989830002567,7313,1856,0
3.7922190660001434,64,1056,0
3.795169315000294,7185,3312,0
3.7992274540001745,3600,2416,0
3.8020387250003296,0,1408,0
3.8053893070000413,432,2048,0
3.8092720630002077,3952,6657,0
3.8123848230002295,1488,1312,0
3.8161406630001693,5361,3472,0
3.8200427910001054,2816,2400,0
3.8231674710000334,1792,2208,0
3.8272007900000062,4273,2608,0
3.830137652000303,7185,3008,0
3.8339853130000847,6097,3232,0
3.8373093929999413,8962,2304,0
3.84103607499992,2096,2400,0
3.844285966999905,496,2192,0
3.848172945999977,6433,2096,0
3.8511475790000986,0,2096,0
3.855132421000235,5233,1504,0
3.8582671879998998,6897,2944,0
3.862217754000085,1280,2016,0
3.8652474059999804,0,3152,0
3.8682566340003177,8658,1456,0
3.872164213999895,0,5057,0
3.8752419550000923,5249,3328,0
3.8790206369999396,5921,4097,0
3.882107145000191,0,2128,0
3.8860313340001085,3808,2016,0
3.8891406480001933,5473,3344,0
3.8924215860001823,0,2064,0
3.896167457000047,5233,6609,0
3.8991919290001533,3952,3488,0
3.9031036960000165,4097,3424,0
3.906976773000224,3872,1296,0
3.9101040450000255,3808,3504,0
3.9140195420000055,5297,2080,0
3.91709076799998,7681,3184,0
3.9209675780002726,1744,4064,0
3.9240956470002857,256,2608,0
3.92801151499998,5377,2976,0
3.9310259210001277,0,2192,0
3.9348557789999177,7169,2016,0
3.9379372040002636,6913,4321,0
3.940850443000272,0,2832,0
3.944801894000193,0,1968,0
3.9480335820003347,6497,1760,0
3.9510415180002383,0,2464,0
3.9551104300003317,4193,5025,0
3.9581455940001433,4977,3440,0
3.962059146000229,4401,2688,0
3.9650379439999597,96,1440,0
3.969044550000035,4625,6929,0
3.972160109000015,144,2352,0
3.9758568229999582,3328,5937,0
3.9790662969999175,5889,2608,0
3.9829465880002317,0,4385,0
3.986106659000143,1920,2576,0
3.989921522000259,3952,1456,0
3.993015947999993,1296,1472,0
3.9969139290001294,8161,3280,0
3.9999917400000413,2016,2816,0
4.004171635000148,0,6033,0
4.0071049110001695,7617,2400,0
4.0111246080000456,304,2496,0
4.014241992000279,3872,3024,0
4.017945921000319,9314,3328,0
4.0211399320000965,0,2560,0
4.02413341700003,480,1968,0
4.028064366000308,8706,3328,0
4.03100546900032,0,1648,0
4.034944316000292,4961,1072,0
4.0381487459999335,6545,2480,0
4.042152701000305,0,1296,0
4.045229346000269,2400,2208,0
4.0490592930000275,6913,2336,0
4.052112841000053,1392,1728,0
4.056152490999921,2304,880,0
4.059059060999971,4209,2544,0
4.062996542000292,432,1472,0
4.066113373000007,864,2416,0
4.070018017000166,6401,1904,0
4.073114204999911,2672,992,0
4.077040651000061,3952,3472,0
4.080039666000175,3536,2656,0
4.084078731000318,1344,2064,0
4.087178709,7201,1456,0
4.091172535000169,0,2848,0
4.094307060000119,5681,2832,0
4.098070773000018,7329,3056,0
4.10128551400021,1296,2480,0
4.104203271000188,0,2416,0
4.108229407000181,5921,5025,0
4.111172947000341,864,2720,0
4.115116451000176,5345,6001,0
4.118133992999901,6305,3328,0
4.122260740999991,5361,3376,0
4.125183472000117,256,2320,0
4.129289494000204,9810,4417,0
4.133060864000072,1312,2416,0
4.136145539000154,2096,2016,0
4.140052817000196,4433,2304,0
4.143274435999956,0,1952,0
4.146272696000324,2864,2352,0
4.15009301300006,5889,7137,0
4.153290697000102,2208,1872,0
4.157087910999962,7857,3328,0
4.161142350000318,3776,3504,0
4.1642976540001655,336,2992,0
4.168018740000207,6241,1024,0
4.17131198900006,1792,3184,0
4.175097683000331,3584,2064,0
4.178153356000166,6001,2816,0
4.181142165999972,0,1488,0
4.185053770000195,0,4817,0
4.188343510000323,8402,1872,0
4.192189066000083,0,2752,0
4.195159072000024,6369,4609,0
4.199014542999976,6065,1600,0
4.202090605000194,1280,2944,0
4.205964915000095,1600,3072,0
4.209108547000142,9218,2784,0
4.213032371000281,1792,3088,0
4.21609893599998,1232,2288,0
4.2200477179999325,3248,1008,0
4.223131876000025,0,2816,0
4.226938539999992,3408,3168,0
4.230013107000104,4353,2704,0
4.2339317089999895,3168,2352,0
4.236902970000301,12066,2672,0
4.240864107000107,960,1888,0
4.2440323690002515,768,3104,0
4.248010327999964,6049,2192,0
4.250937444000101,288,2928,0
4.254887252000117,3040,1680,0
4.258142732000124,7889,2736,0
4.262028057999942,0,4353,0
4.264832727000339,304,3568,0
4.269080341000063,8434,1328,0
4.272041414000341,2832,2816,0
4.276087825000104,3168,1792,0
4.278987970000344,6241,3376,0
4.282030841000051,0,2368,0
4.286040051000327,1344,5937,0
4.289850950000073,6145,2048,0
4.293022157999985,2528,3072,0
4.2969780840003295,4353,1680,0
4.299999697000203,3168,2240,0
4.304038854000282,368,2480,0
4.307177358999979,5937,2832,0
4.311238569000125,1744,1792,0
4.31433413700006,4353,2992,0
4.318092565999905,9618,2992,0
4.321326044000216,1296,1648,0
4.325092404000316,1360,4097,0
4.328355533999911,6177,2192,0
4.3321390790001715,464,2784,0
4.335226542000328,7425,2816,0
4.339129328000126,6417,2400,0
4.3421746859999075,0,2064,0
4.346249941000224,1264,1584,0
4.349184005000097,5969,2272,0
4.353117583000312,2272,2016,0
4.356379824000214,3280,3184,0
4.3601097650002885,2528,2192,0
4.363194670000212,224,2464,0
4.367201472000033,2656,1792,0
4.370122914000149,4433,1776,0
4.374261437000314,7393,3360,0
4.377374543000315,8802,3680,0
4.381158830000004,1888,5745,0
4.384172090999982,0,1328,0
4.388246293000066,9570,2304,0
4.391302422000081,0,2816,0
4.39519149600028,9170,2672,0
4.398278670000309,7937,3808,0
4.402003893000256,1232,1280,0
4.405318491000344,1008,2416,0
4.409098098999948,8706,1728,0
4.412219284999992,1024,2304,0
4.416286397000022,4080,1264,0
4.4193501130002915,3616,2016,0
4.423114287000317,272,608,0
4.426370622999912,2416,2576,0
4.430079645000205,3856,2448,0
4.433176081000056,1568,1328,0
4.437232803999905,5729,2512,0
4.440179257000182,2672,1488,0
4.443980945000021,0,2000,0
4.4472629249999045,6401,1808,0
4.451099124999928,2640,2976,0
4.454339101000187,6065,1968,0
4.4582510580003145,9010,2832,0
4.461196981000285,768,1824,0
4.464388087000316,0,3264,0
4.468209486999967,9186,3728,0
4.472021162000146,2800,2384,0
4.475327263000054,6897,1584,0
4.479071382000257,6657,2432,0
4.482095643000321,192,1792,0
4.486085567999908,1008,1776,0
4.489195765000204,5953,2080,0
4.493078720000085,2016,1360,0
4.49610956000015,1696,1792,0
4.500002242999926,3664,3616,0
4.503124201999981,0,1280,0
4.506967669000005,2288,2080,0
4.510036504000254,5297,2672,0
4.513931019000211,2448,1360,0
4.517031283000051,7777,3984,0
4.520943507000084,2080,2544,0
4.523938601000282,0,2720,0
4.527844438000102,5793,1808,0
4.530849154999942,768,3152,0
4.534783022000283,4977,1712,0
4.53784191800014,6913,2480,0
4.541781761000038,1184,1488,0
4.544821402000252,32,2800,0
4.548793054000271,9426,1728,0
4.551832072000252,3568,4113,0
4.555804093000006,3328,1680,0
4.558830596000007,3952,3568,0
4.561800155000128,0,1424,0
4.5657748090002315,0,7953,0
4.569071361000169,7073,2096,0
4.57305661800001,528,1120,0
4.576087215999905,2080,2304,0
4.579820527000265,3376,2464,0
4.5830259019999176,0,1552,0
4.586993721999988,3488,2096,0
4.589946419000171,4353,2096,0
4.594104745000095,4465,1296,0
4.597131673000149,8113,3488,0
4.60083639100003,1824,2496,0
4.6040294950003045,0,2272,0
4.607986258999972,5377,2448,0
4.611122900000282,2160,3616,0
4.614987818999907,6417,2032,0
4.618021106000015,7169,2992,0
4.62193729899991,768,1712,0
4.624888413999997,256,2576,0
4.6288490629999615,8161,2304,0
4.6320328490000975,1072,1952,0
4.635966016000111,2448,1776,0
4.639058938000289,3632,1824,0
4.642091014000016,0,3024,0
4.646015968000029,7441,5345,0
4.649963224000203,6177,2704,0
4.653100328000164,4273,3264,0
4.656978542000161,4369,1072,0
4.660151121000126,2576,2576,0
4.663117415000215,0,2608,0
4.666998561000128,3808,6353,0
4.670114243000171,5377,3072,0
4.673914046999926,6913,3424,0
4.677781229000175,9250,3280,0
4.680831229999967,2352,3312,0
4.683824912000091,0,1952,0
4.687801579000279,4113,3280,0
4.690854148000199,1680,1792,0
4.694800706000024,7073,4465,0
4.697804048000307,6449,2752,0
4.701802944000065,4257,3920,0
4.705773600000157,2272,1536,0
4.708789959000114,8498,2480,0
4.712777965999976,1536,2752,0
4.715808586000094,5409,1296,0
4.7197707650002485,1968,2304,0
4.722815936000188,0,1744,0
4.725827253000261,1488,976,0
4.729798101000142,2672,7681,0
4.733765069000128,2384,2640,0
4.736782274000234,8081,3328,0
4.740769786000328,2304,3200,0
4.743782765000105,2112,2784,0
4.747750479999922,5121,2384,0
4.750806235000255,1216,2560,0
4.7547863520003375,5409,1984,0
4.757821941000202,6577,2304,0
4.7617771000000175,160,1504,0
4.764802063999923,0,2832,0
4.768771947999994,6913,2032,0
4.771772425000108,3168,2912,0
4.7757643620002455,7073,1376,0
4.77881778300025,4353,3120,0
4.781887318999907,0,2048,0
4.785815766000269,512,9218,0
4.788842235000175,7169,2800,0
4.792798443000265,1792,6945,0
4.795821549000266,3952,1008,0
4.799793808000231,5121,3856,0
4.802846924000278,0,1856,0
4.806752882000183,1936,2864,0
4.809809249999944,5073,1792,0
4.813795866999953,4097,1024,0
4.816809204000037,9634,1504,0
4.820786648000194,1936,4529,0
4.823799314000098,464,2272,0
4.827785518999917,3744,6081,0
4.8308088110002245,288,2080,0
4.834765079000135,7697,5905,0
4.8378434090000155,5857,2512,0
4.841815494999992,5265,3856,0
4.844846576000236,576,1296,0
4.8488165409999056,10898,5889,0
4.852788985000188,864,1792,0
4.855776842000068,3584,3328,0
4.8597991520000505,3424,3072,0
4.86280770500025,1088,2704,0
4.866748542000096,1376,2016,0
4.869828590999987,5537,1296,0
4.873788997000247,4032,1792,0
4.876780628000233,7233,3344,0
4.880779540000276,1376,1200,0
4.883870888000274,272,1792,0
4.887849653000103,7185,1648,0
4.89082797600031,0,1840,0
4.894843642000069,6785,2544,0
4.897825581000234,6465,2816,0
4.901831089000098,848,1904,0
4.9048617870003,1072,2576,0
4.908820183999978,7601,1344,0
4.911829330000273,400,2208,0
4.9158297580002,5889,1968,0
4.9188320650000605,3888,3328,0
4.9220790190001935,0,1456,0
4.926095499999974,7025,3952,0
4.929862363000211,5937,2960,0
4.9330393600002935,3248,2256,0
4.937028245999954,3328,1456,0
4.939918631000182,3488,2288,0
4.944047781000336,864,2896,0
4.946957575999932,6305,1776,0
4.950836132999939,2080,2880,0
4.954130730000088,3072,1328,0
4.957987681000304,5937,3056,0
4.961143584000183,1200,2032,0
4.964964526000131,0,1344,0
4.968105184000251,9394,1856,0
4.972036963999926,432,1952,0
4.975028560000283,7137,2304,0
4.979031609000231,7585,2048,0
4.982165025000086,528,1520,0
4.986035462000018,1808,2304,0
4.989277615999981,3840,2992,0
4.993076359000042,1280,2096,0
4.996296015000098,4913,1808,0
4.999985024000125,5185,2048,0
5.003197476999958,816,2784,0
5.007009141000253,1792,2672,0
5.010166260999995,4257,2976,0
5.014233740000236,6849,4353,0
5.017247325999961,10018,3776,0
5.021293042000252,1552,4113,0
5.024223127999903,0,1616,0
5.028005714000301,5937,2592,0
5.03117107800017,1248,1312,0
5.035052439000083,7649,3120,0
5.038097631000255,6913,2032,0
5.042178974000308,8498,6689,0
5.045338992000325,1520,2144,0
5.049241682000229,3392,3728,0
5.052208769000117,0,2144,0
5.056113541000286,7137,848,0
5.059258925999984,6609,2512,0
5.062974961000236,0,2144,0
5.065994718000184,4385,4032,0
5.06990352899993,1376,1264,0
5.073080242000287,16,2672,0
5.076799114000096,1024,2864,0
5.079911823000202,25606,4353,0
5.083837076000236,4881,2192,0
5.086911474000317,14163,3600,0
5.0908681190003335,0,2048,0
5.093841051000254,2304,1696,0
5.098072283999954,864,3088,0
5.100838644000305,21477,2528,0
5.105075334000048,1056,176,0
5.108152861000235,2816,2576,0
5.112125900000137,13283,1040,0
5.115080100000341,3424,3392,0
5.119060448000255,8946,2048,0
5.122030784000344,4865,1296,0
5.126164018000054,21349,7713,0
5.129801731000043,7921,1424,0
5.1328814610001245,23797,1776,0
5.13708402300017,2720,2048,0
5.139853707999919,14627,1280,0
5.1439653219999855,8738,6385,0
5.14704992399993,9458,2080,0
5.1510459099999935,13635,4097,0
5.1548695020001105,8674,2288,0
5.158178091000082,4833,2640,0
5.162170010999944,4593,2048,0
5.165116729000147,2656,2048,0
5.169111186000009,10066,1552,0
5.172220624000147,19540,768,0
5.176281521999954,6625,1296,0
5.179355366999971,1792,3056,0
5.183134404000157,1712,5233,0
5.186149310000019,9234,5921,0
5.190108911000152,6657,5265,0
5.194119207000313,1040,1424,0
5.197215099999994,11538,2096,0
5.20102839800029,13779,1456,0
5.204332632999922,1056,768,0
5.208240162000038,11522,1392,0
5.211371509999935,8049,1952,0
5.215154410000196,14451,6241,0
5.219179958000041,9938,1792,0
5.222211104000053,11410,2304,0
5.226311813999928,17396,2048,0
5.229356975999963,18740,1488,0
5.233194840000124,29623,7569,0
5.237191302000156,5105,3424,0
5.240081700000246,6897,1696,0
5.243961356,608,656,0
5.247299668000323,2800,2816,0
5.251006292000056,5409,1568,0
5.25428268900032,24277,2304,0
5.258072875999915,1392,2768,528
5.261331328000324,5921,2016,0
5.265257651999946,18180,4609,0
5.268974656999944,26182,1136,0
5.272155098999974,44602,832,0
5.276225247000184,16564,1520,0
5.279204422000021,20228,2640,0
5.283054042999993,10162,3408,0
5.287038233000203,1712,1216,0
5.290138113000012,38921,9074,464
5.2942933260001155,7937,5729,1024
5.298195085000316,18708,2560,0
5.301130174000264,16500,1216,0
5.305046470999969,21205,4225,0
5.309064494000268,65535,2288,0
5.312175677000141,24838,1952,0
5.316242252999928,65535,2352,0
5.319965789999969,21093,2912,0
5.323127921999912,10738,2080,0
5.327175684999929,7009,2816,0
5.330146945000251,15171,1536,0
5.334139167000103,36424,1392,0
5.338146589000189,45691,2304,0
5.341207637000025,20148,4977,2016
5.345174215000043,14195,2144,48
5.348996148999959,7265,2064,0
5.351970972000345,53517,1024,0
5.355848261000119,39193,1648,0
5.35888213699991,672,992,0
5.362849494000329,35704,928,0
5.365840440000284,61887,1584,0
5.3699068760001865,56269,5377,0
5.3741126429999895,28246,960,0
5.3771356500001275,16820,2208,0
5.380815457000153,44618,112,0
5.384068242000012,5585,2800,0
5.388059491000149,30759,2304,0
5.391102422000131,4048,2800,0
5.395007369000268,26662,2336,0
5.399081174000003,1952,2864,48
5.40212304500028,20020,2016,0
5.406138530000135,8866,976,1568
5.409810669000308,3872,3088,0
5.4130194990002565,1024,11618,0
5.41700868900034,5297,3328,0
5.420021863000329,1968,1968,0
5.424153024000134,14883,1376,0
5.427375305000169,3216,1712,0
5.431058025000311,12627,4865,0
5.43505680699991,29191,1808,0
5.438326357000278,8258,2400,0
5.442127401000107,13091,3248,0
5.445363118999921,3792,1568,0
5.449142976000076,21397,7041,0
5.453086539000196,11010,1488,0
5.456354183000258,4449,4465,2400
5.46018379599991,10130,4241,256
5.464285399000346,11682,1632,1280
5.468102426000314,32135,6257,1392
5.4722636870001224,30983,8338,3696
5.475333346000298,2816,4097,0
5.479123580000305,3136,7921,0
5.482175374000235,0,1712,0
5.486263113999939,544,1280,0
5.489185441000245,6273,2656,0
5.493102716000067,0,1024,2576
5.496188315999916,2192,1312,0
5.499976725000124,6209,480,0
5.503193418000137,3616,1712,0
5.50724548900007,1888,3232,656
5.511030373000267,1600,1424,1616
5.514191375000337,896,4689,112
5.5181144560001485,48,12387,12291
5.521926646000338,4048,688,0
5.525251812000079,12082,6449,0
5.5290817680001965,27062,1792,0
5.532133717000306,0,2144,0
5.536073658000078,10338,928,2880
5.539969274000214,9730,1904,3248
5.54314520700018,1840,2000,96
5.547231122000085,1616,7425,0
5.5502119759999005,5649,1168,0
5.554237105000084,2816,3632,0
5.5580435080000825,14883,1152,0
5.561281131000214,608,3520,3408
5.565111130000332,5889,2816,0
5.5681266619999406,0,8738,1792
5.572035143999983,12339,12563,6657
5.575960583000324,2240,7761,0
5.578997135999998,1792,1744,0
5.583207499000309,21925,25942,0
5.587084504999893,12915,8033,0
5.590040450000288,14883,8866,0
5.594012322000253,768,15987,0
5.5980630160001965,17668,720,7313
5.60195468000029,6641,5777,4625
5.605087480000293,1616,3104,0
5.609004147000178,9266,9218,0
5.612107993000336,16,1760,0
5.615975921999961,6721,2096,736
5.619096950000312,9394,3680,2064
5.623043730000063,2592,3488,0
5.626332312000159,256,1024,0
5.630106395999974,13171,4993,1776
5.634001773999898,7713,800,0
5.637132130000282,9218,1504,0
5.6409639170001356,6369,2640,0
5.643970891000208,0,2000,0
5.647882516000209,10658,4721,0
5.650907461000315,1792,3248,0
5.654835614000149,3920,0,0
5.657866773000023,12611,1824,0
5.662004661000083,864,624,6145
5.665976844999932,2624,800,4769
5.668827879000219,10754,9506,7889
5.672994931000176,8530,9154,0
5.677010989000337,14003,8546,0
5.679882522000298,27926,4849,864
5.684010888000103,5841,3456,0
5.68805069400014,3200,5761,928
5.691131899000084,13283,1200,848
5.695079299000099,9474,15795,2672
5.699069597000289,39705,240,2832
5.702964007999981,8610,13075,0
5.706140088000211,6673,1248,0
5.709822761999931,7153,2336,0
5.713071088000106,0,4465,0
5.716941531999964,6881,1568,0
5.719993673000317,13747,9986,0
5.72421367700008,400,784,1056
5.727170554000168,6145,688,0
5.731198166000013,512,1392,0
5.734107181000127,8946,4353,0
5.73819497400018,14579,1520,0
5.741329444000257,1024,1056,0
5.745227102000172,2048,4657,0
5.749004520000199,14915,1392,0
5.752235400000245,7953,3440,0
5.75615832099993,2768,5713,0
5.7592514570001185,10274,5537,0
5.7630892520001,608,12659,0
5.766968740000266,256,2912,6081
5.770099166999898,13923,6913,8930
5.774301567000293,2544,9506,5713
5.778138444999968,9570,8866,768
5.78132523100021,1440,1120,0
5.7852624189999915,18660,9410,13619
5.78930239500005,4353,9218,14099
5.7932224599999245,4865,12403,9266
5.79712253300022,20741,8722,1776
5.800942050000231,1792,1760,0
5.804215875999944,15475,1648,0
5.808214510000198,28871,5889,0
5.812054007999905,1552,1840,1200
5.815288076000343,10658,2080,752
5.819149235000168,12899,6161,0
5.822370475000298,1584,544,0
5.826311161999911,2352,3328,0
5.830010294000203,7169,2160,0
5.833145332000186,960,3536,0
5.837168742999893,1968,2320,0
5.840058962000057,6801,2576,0
5.844237679000344,10594,1008,0
5.847211193000021,24117,1280,0
5.8510751900003015,14083,736,0
5.855027937000159,288,1184,1376
5.858337653000035,5889,1712,3760
5.8622670409999955,8738,8946,4353
5.866050902000097,9506,6769,0
5.869352861000152,96,13811,2432
5.873226974000318,48,6465,0
5.876381166000101,4353,1376,0
5.880166651000309,44474,10034,2608
5.884035778999987,22197,256,0
5.888069797000298,400,11010,12995
5.892193631000282,19956,19684,7505
5.895228628000041,1680,1904,2064
5.899153161999948,1024,6929,0
5.903095123000185,5361,4000,1648
5.9063889869999,22037,1648,0
5.909949909000261,0,4369,0
5.913119369000015,1904,10530,0
5.91699911600017,17828,992,0
5.920135419999951,2640,1280,0
5.924058560000049,6337,10642,0
5.927958476000185,3744,6881,0
5.9310976619999565,1920,1168,3856
5.935042504000194,9330,1280,0
5.938114972000221,5857,2416,0
5.941910009999901,1376,4433,0
5.945015848999901,2672,2848,0
5.9489121030001115,21253,2240,0
5.952817571000196,6385,2064,0
5.955934806000187,2064,2000,2016
5.95988023100017,0,4449,5937
5.963096389999919,464,3360,0
5.966802528000244,0,7857,2560
5.971091934000015,5121,7073,2048
5.9741053279999505,2192,4625,0
5.978086560000065,16339,1488,0
5.9808383790000335,5329,1344,0
5.985063293000167,2528,3632,0
5.988095958000031,0,1504,1264
5.992055855000217,4129,5377,400
5.995941985000172,16099,528,0
5.999877198999911,24021,4241,1488
6.003217654000309,11538,13747,0
6.006895378000081,19284,2288,0
6.010863366000194,16019,10386,0
6.014022673999989,15795,6225,0
6.018041318000087,11474,4625,1456
6.022140426000078,15379,14147,800
6.026099185000021,11266,2064,0
6.029136782000023,25046,1488,0
6.033121233000202,912,4705,0
6.037048028000299,6145,8113,1680
6.039978495000014,2912,1776,0
6.044071281000015,0,1376,192
6.047126570000273,4321,1936,784
6.051118341000347,9730,480,768
6.054146686999957,6257,2816,0
6.058123421000346,18020,10242,0
6.06208410499994,3952,3264,0
6.065133668000271,688,3696,0
6.0689725430002,8177,7169,0
6.07209008000018,0,1728,0
6.07602703800012,11042,5521,1648
6.079922710000119,13315,1456,5185
6.083185278000201,1792,2304,0
6.0870926330003385,624,1280,0
6.090044038000087,800,1968,0
6.0941316250000455,8818,15619,0
6.097216482000022,10210,6913,0
6.101053227000193,5393,1504,0
6.105094531000304,5121,4048,2048
6.108171188000142,0,1280,0
6.1121234860002005,464,2608,352
6.115172322000035,2336,1360,0
6.118981563000034,544,7361,0
6.122175150000203,6833,1696,0
6.126149758000338,1888,1632,1344
6.129124969000259,2544,4561,0
6.13302058599993,7297,2912,0
6.1361199269999815,5601,944,0
6.139994370000295,1296,5841,0
6.143151720000333,6145,3344,0
6.147164327000155,3696,2928,0
6.1509609830000045,12178,3840,0
6.154175679000218,368,3760,0
6.158146350000152,5265,3328,608
6.161208370000168,2768,6961,0
6.165207797000221,10162,1888,3216
6.168984848000036,5601,1968,1856
6.17316997800026,2720,4785,4977
6.176269140999921,7793,2144,0
6.179998400999921,8754,1552,0
6.183328310999968,0,3424,2096
6.187190816000111,16131,7169,0
6.191090214000269,2384,1296,0
6.194149370000105,4209,832,0
6.19794569800024,2368,1040,0
6.201102461000119,2048,2288,0
6.205001881000044,3888,4129,0
6.2088543670001854,14371,5681,4785
6.211964136999995,2464,3280,0
6.215910558999894,20404,1280,0
6.21903040899997,13043,5889,544
6.2230048360002,2464,4545,0
6.226004806000219,6145,560,0
6.229963166000289,27862,2480,0
6.2339070080001875,11010,2256,0
6.236941529999967,8770,944,0
6.240864802000033,240,2064,0
6.243885252999917,736,3072,0
6.2479795170002035,6737,5089,2528
6.251095416000226,2016,1680,0
6.2550650870002755,7281,6529,0
6.258994063000046,14787,5889,1328
6.262994862000141,3632,368,2704
6.265964877999977,4353,1024,0
6.2698148560002664,6673,1152,3104
6.272970079000061,14083,7937,0
6.27702669700011,17572,13779,0
6.281042309999975,6193,912,2816
6.28498618399999,9154,1648,12819
6.2890293909999855,17156,1360,272
6.2921051630000875,3216,4305,0
6.296010537000257,14835,1056,0
6.299877877000199,14995,2000,2304
6.303080730000147,3328,688,0
6.307050877000165,512,3536,0
6.310037403000024,9362,5281,0
6.313379260000147,368,4321,0
6.317061804000332,14963,4016,0
6.321113368000169,768,3568,0
6.324160435000067,192,5729,0
6.327235903000201,624,992,0
6.331126159000178,7217,7857,0
6.3341363120002825,1232,1504,0
6.338261139000224,11362,4369,0
6.3421927710001,4705,464,0
6.3452430279999135,5793,3184,0
6.349040002000038,2592,7425,0
6.352013397000064,96,1280,0
6.356121445000099,12307,2112,0
6.359198005000053,16884,5649,0
6.363112128000012,4753,2336,5121
6.367053708000185,14963,9170,0
6.370170808000239,13779,1632,2784
6.374364319000051,10338,11762,2048
6.378308583000035,24229,2000,4561
6.382105638000212,8370,5377,0
6.385933193000255,736,6833,2560
6.389304173000255,7921,1280,0
6.392319073000181,0,2320,0
6.396092578000207,4337,6513,0
6.399239124999895,2304,7569,0
6.403203074999965,19300,2336,0
6.407216060000337,12867,9106,1056
6.411097229000006,9474,8930,0
6.41424890899998,5137,1488,0
6.418036811000093,18484,5537,0
6.42128171000013,14883,4321,0
6.425169763000213,0,2576,0
6.428303389000121,14147,6945,1584
6.432074721999925,9474,7073,0
6.4360844910002015,2064,2624,992
6.439321292999921,23077,4657,0
6.4431900690001385,1376,2560,1792
6.447015726000245,2352,2128,0
6.451045769000302,16227,4577,3952
6.454128306000257,1792,4016,0
6.457329384000332,0,5313,0
6.461227639000299,2576,864,48
6.464347998999983,5953,1280,0
6.468026001999988,2592,5057,0
6.471347435000098,5649,928,0
6.475221724000221,0,4945,0
6.478293038000174,18260,560,0
6.48202561800008,3472,320,0
6.485154772999977,5121,2720,0
6.489192183000341,10450,1104,0
6.492350010000337,4209,6401,0
6.496296310000162,12915,1184,0
6.500002118000339,11410,10594,3408
6.5031692860002295,3632,944,0
6.507141125000089,10242,4417,0
6.51099165100004,11122,8754,0
6.5141446510001515,768,10338,1168
6.518062340000142,5201,3360,0
6.521983284000271,64,5217,3552
6.525153904000035,5873,5121,12579
6.529164072000185,8690,2608,1456
6.532933922000211,4369,3024,0
6.535952407999957,0,1360,2544
6.539911272000154,15379,1776,784
6.542869731000337,0,512,0
6.546986757000013,5425,1712,0
6.551080012000057,4593,1184,2304
6.554083136999907,1136,560,0
6.558036069000082,8674,3232,0
6.561091629000202,0,4305,0
6.564114667000013,768,1488,0
6.568108432999907,2464,10930,0
6.571126297000319,0,1168,0
6.5750457330000245,7921,3328,0
6.578110772999935,256,2784,0
6.581863363000139,768,8738,352
6.5851092780003455,1424,8306,0
6.588987396999983,7425,3840,0
6.592915753999932,8402,3120,0
6.59616149500016,3056,2128,0
6.599892376000298,2288,3232,0
6.603116950000185,6945,4721,8658
6.607135564000146,1248,10754,0
6.611237278000317,1536,1984,4225
6.6143121499999324,25062,7329,0
6.618235774999903,23973,3152,0
6.622020092000184,2784,2192,0
6.625151260000166,10082,2048,1088
6.629086677000032,33432,2016,0
6.632992364000074,4497,1888,0
6.636139381000248,18660,2352,0
6.640030973000194,14019,5217,0
6.643226633000268,0,2656,0
6.647190808000232,12787,704,1648
6.650240491000204,5905,3760,0
6.654184729000008,6129,3552,0
6.65818676500021,12579,2832,3808
6.661290818999987,768,6913,0
6.665216200000032,13027,4865,0
6.669136944999991,8594,4721,3056
6.672355582999899,496,3168,3072
6.676263562000258,11154,5377,0
6.679299934000028,0,1840,0
6.683048466999935,1328,464,0
6.686996112000088,4897,2240,2208
6.69006304200002,17972,1200,0
6.694208004000302,4657,13539,0
6.698047911000231,15203,7169,1696
6.701169687999936,15347,944,0
6.705208554999899,12130,3072,0
6.709169521000149,2752,6289,1648
6.712263111000084,25238,1376,0
6.716250957000284,10658,1232,0
6.719939429000078,11522,13491,0
6.723096776000148,0,3424,0
6.727063003000239,10498,2208,1280
6.730053668999972,12387,2656,0
6.734048100000109,768,3616,0
6.737143007000213,1792,1648,0
6.7411860199999865,3424,5297,0
6.744104716000038,0,2272,0
6.748028057000283,2816,800,0
6.751250209000318,2080,4064,0
6.755042774000231,2816,3216,0
6.7582280950000495,400,3792,0
6.762170089999927,1952,1040,0
6.766111535000164,7777,1280,4705
6.769176910000169,6145,5025,0
6.773003895000329,0,1616,7137
6.776376473000255,5809,4977,5153
6.779972366000038,0,13571,1184
6.783200035999926,0,2096,0
6.786970783000015,0,5681,0
6.790147012000034,1024,2048,0
6.794137888000023,1840,5649,0
6.797928256999967,11538,16243,976
6.800975294000182,13235,5857,0
6.804981318000046,224,6913,1648
6.808963182000298,31159,7729,9730
6.812037374000283,8354,2512,0
6.816090979999899,13587,2384,0
6.819936756000061,4193,5857,4609
6.823028676999911,0,11954,0
6.82610267300015,640,4881,0
6.830060476000199,13491,13059,0
6.833915832000002,6177,7265,24838
6.8377876370000195,1616,3360,0
6.840884676000314,7201,1536,0
6.84485189499992,352,1248,4561
6.848952109000038,2928,928,2560
6.852086558000337,2464,6257,0
6.855134146000182,0,12595,0
6.859049678000247,5297,8818,0
6.862104290999923,96,2928,0
6.866002352000123,768,8562,0
6.869096036999963,5857,992,0
6.873003664999942,4865,2304,0
6.87603338100007,9138,3120,0
6.879885256000307,6913,6193,656
6.883134785000038,256,4129,0
6.887083485999938,4865,2048,3776
6.891089566000119,0,2976,496
6.894117147000088,768,13139,0
6.898026541000036,12483,10770,2304
6.902146248000008,0,2224,5121
6.906060265000178,9714,1264,18596
6.909298842000226,12018,2928,0
6.913276305000181,2816,2912,2304
6.916928086000098,7937,2304,0
6.920058229000006,2656,3344,2592
6.924212496000109,18084,2960,0
6.928071272000125,26886,6833,8081
6.931272701000125,48,4929,0
6.935013562000222,7681,32,0
6.938164781000069,13859,2768,672
6.942079522000313,7361,8802,608
6.945959690000109,3280,4497,0
6.949319693000234,3664,12034,0
6.95313218299998,5073,1648,0
6.957085598000049,5905,1504,752
6.959994672999983,912,2016,0
6.963184398000067,560,1104,0
6.9670103490002475,4177,2032,0
6.971144049000031,11298,3104,0
6.974247139999989,2848,2736,0
6.9781976150002265,15667,1440,3184
6.98203067500026,3888,1040,0
6.985164399000041,1280,2128,0
6.989096954000161,6753,4433,8434
6.992340210000293,3952,960,0
6.996153657999912,18916,4497,0
7.000094730000001,16067,7937,5329
7.004159359999903,18276,768,6545
7.007191493999926,24918,2016,0
7.011026155000309,23397,0,0
7.014307654000277,19732,1872,0
7.018037519000245,14339,672,0
7.021338196000215,8770,11538,0
7.025125982000191,7793,3488,9698
7.029082308999932,10450,6849,0
7.032086228000026,6897,5361,0
7.036333399000341,15987,3632,256
7.040054958999917,14787,7649,0
7.043147339999905,5297,768,0
7.047078134000003,5457,3088,0
7.050015313000131,256,4289,0
7.054115015000207,2080,0,0
7.057113965000099,2336,2208,0
7.060018688000127,960,1376,0
7.064276636000159,1744,4353,752
7.068032436000067,10578,864,0
7.071282792000147,9298,4209,0
7.075138172000152,0,2928,0
7.078291670999988,11890,2848,0
7.0820619900000565,5857,1280,0
7.0852943899999445,3920,848,0
7.089035644999967,14355,6737,0
7.092319588000009,1824,5377,0
7.096120644000166,15075,2480,1120
7.099999527999898,17956,864,320
7.103163622000011,5713,6897,0
7.107040261000293,9586,3184,0
7.110945879000155,8466,7009,0
7.114163354000084,17732,3408,10866
7.118093172000044,3728,2272,2976
7.122010631000194,1792,3728,0
7.125118310000289,17940,5969,0
7.12893889299994,19508,13715,0
7.1328296149999915,9122,1024,0
7.135901698999987,1904,3728,1264
7.139852367000003,1280,3520,0
7.1430119970000305,0,7793,0
7.1470433270001195,0,1792,0
7.14991533500006,6913,3184,0
7.154044032999991,224,1792,0
7.156994954000311,2304,1056,0
7.161019091000071,1360,1280,0
7.164072265999948,144,992,0
7.166895232000115,8626,480,0
7.171100267999918,0,4545,0
7.174066187000335,1120,0,0
7.178043252999942,2992,3152,0
7.180980737000027,928,3600,1504
7.185080704000029,1072,1872,0
7.187993032000122,1904,10258,0
7.1921061400003055,4209,7377,0
7.19505888499998,5633,1952,0
7.199146337000002,9314,4849,5425
7.203097860000071,416,5137,0
7.20629626400023,768,512,0
7.209946546000083,8786,1472,0
7.213268962000257,928,5793,0
7.217015102999994,14003,1088,1312
7.220095067000329,0,2304,0
7.2242189640001016,8562,7089,0
7.227189811000244,13315,3328,0
7.2312289040000906,2544,6401,0
7.2341961030001585,3984,1040,0
7.238238578000164,10018,4241,0
7.242221217999941,6865,2016,864
7.245346525000059,576,2960,528
7.249083866000092,8049,6657,0
7.25235018300009,0,2496,2656
7.256262879000133,2688,4080,0
7.2599650990000555,8610,1040,800
7.26323878500034,48,1792,0
7.266975382000055,3088,2176,0
7.270063766000021,9378,1808,0
7.274034893000135,0,2336,1904
7.27810913400026,4977,1280,2256
7.281241286000295,3856,2288,0
7.285015453000142,6817,1264,0
7.288231471000017,7265,6801,0
7.292181481000171,3472,1680,0
7.295311737000247,9042,880,1952
7.299078842000199,23541,4753,0
7.303054615000292,5985,5889,3920
7.306245973999921,1440,1248,0
7.3099495970000135,13811,1792,9826
7.314124651999919,6065,2592,0
7.317089619999933,7089,1376,0
7.32118463200004,4529,6913,0
7.324286633000156,3728,10322,0
7.328099297000335,6401,11122,0
7.331981215000269,3136,1344,0
7.335216133999893,8466,1792,0
7.33905777200016,8450,6961,272
7.342243699999926,5201,1520,0
7.346185833000163,1520,4257,0
7.349931920000017,9826,1904,1904
7.353086745999917,0,3728,416
7.357137378000061,512,1216,1488
7.360967429000084,1856,2672,304
7.364075856999989,4609,2704,0
7.367928323000342,2480,1952,0
7.371281442000054,6113,2864,256
7.375067238000156,5457,1104,0
7.378310194000278,13491,1376,0
7.382110910999927,11282,5937,0
7.3860874450001575,0,1520,336
7.389138640000056,19604,1280,2048
7.393028720000075,528,3328,0
7.396929073000138,976,2512,2272
7.4000109920002615,0,4849,0
7.403877386000204,21621,5041,0
7.407051866000074,1792,2256,112
7.410044639000262,0,2496,0
7.41402753300008,28374,1872,0
7.418001181999898,6049,16564,4097
7.421948820000125,256,1312,6625
7.425026709000122,8482,1408,0
7.428885882000031,10642,16323,0
7.431869718000144,9138,2128,0
7.435846242000025,16452,1888,3056
7.439807300000211,5425,9650,0
7.442946157000279,944,2112,0
7.4469475650003005,1184,7841,736
7.451021236000088,5313,1888,0
7.45389590700006,4545,1792,0
7.458128511000268,9474,1072,0
7.461224174000108,256,2112,0
7.464961991000109,4129,1968,0
7.468265025000164,11010,1488,0
7.472084988000006,0,2256,0
7.475066194000192,2512,6289,0
7.478963299000043,5041,1040,0
7.482140226999945,1856,3840,0
7.485264643999926,0,768,0
7.489016079000066,3488,5473,0
7.492328237000038,0,5553,1200
7.496297274999961,14067,5169,0
7.499162321000313,0,2256,0
7.503124990000288,10322,8161,0
7.506379983999977,7937,1456,0
7.510034863000328,15107,3328,0
7.5141181680000955,20388,2528,13059
7.5180434070002775,6481,7553,0
7.521199016000082,28791,976,10386
7.525160503000279,23813,11026,432
7.529010077000294,4353,320,0
7.53305276600031,6609,5297,1056
7.536150855999949,16820,4465,0
7.539954294999916,6673,1888,0
7.543185671000174,2080,1984,0
7.547138788000211,32,11234,2096
7.551216049000232,10818,1488,144
7.5542458519998945,0,5825,0
7.558050371000263,7473,2976,0
7.56129984800009,1328,1552,0
7.56415704300025,0,1616,0
7.568219899000269,6449,2672,0
7.571342645000186,8754,560,0
7.575181237999914,1840,4048,0
7.578221711999959,7777,0,0
7.582010607000029,0,4401,0
7.585288218000187,3648,4785,688
7.5891157010000825,17316,1392,0
7.592293057999996,608,1728,0
7.596150476000275,10898,1280,3856
7.600058058000286,19940,2736,3536
7.604213382000125,0,3120,12531
7.607332461000169,528,11426,1968
7.611255114999949,2304,5009,0
7.615066824000223,27670,1184,32
7.618283165000321,10530,3168,0
7.622299274999932,17076,1712,15363
7.626344677999896,40889,1392,7857
7.630000619999919,4817,13043,0
7.634367810000185,2512,1456,0
7.637128377999943,11106,1824,800
7.640946991999954,8738,3120,512
7.643822788000307,2000,5841,0
7.647807318000105,2608,8017,0
7.650805017000039,48,2304,0
7.654757352000161,0,3984,0
7.6578058929999315,48,2528,0
7.661773008000182,2080,2144,528
7.664828526000292,0,1872,0
7.667814490000183,7137,2048,0
7.671791693000159,5041,3584,0
7.674843746000079,128,1008,0
7.67881141900034,7313,6289,0
7.6818220300001485,0,2160,0
7.685795032999977,0,4721,0
7.688775333000194,6097,2144,0
7.692748725000001,960,1680,0
7.69576013599999,4305,2048,0
7.699678229000256,4865,10242,0
7.702793451000161,560,2064,0
7.7067681779999475,6225,5393,2192
7.710747828999956,4353,7073,6401
7.713802337000288,6769,12339,0
7.71777387200018,1776,24229,12595
7.721757475000231,29719,1984,26022
7.725769318999937,12499,832,320
7.729736569000124,400,11506,1040
7.732924880000155,2352,1264,672
7.736743085999933,8049,1984,0
7.741031256000042,1856,4289,0
7.744152468000266,5681,1280,0
7.748109566000039,1552,1136,0
7.751075183000012,336,2784,0
7.754855339000187,3680,2064,0
7.758093373000065,9666,2416,0
7.761050068000259,0,2992,0
7.765055860000302,0,6001,0
7.76808052000024,10498,4977,0
7.771960204000152,768,816,224
7.775072076000015,2528,3440,0
7.778938045999894,8466,6065,0
7.781835107999996,0,1520,0
7.785097550000046,0,304,0
7.788972643000307,10002,4705,0
7.792058962000283,0,1360,0
7.796132785000282,3328,2416,3328
7.800030549999974,17508,3104,0
7.803097935000096,0,1296,0
7.8072174240001,1184,8466,1456
7.810050722000142,1440,848,0
7.814246946999901,9858,10242,0
7.818223450999994,22789,16339,4369
7.821318457999951,5649,4529,0
7.82531002099995,18276,15443,13651
7.82931909700028,44186,32071,9218
7.83315867400006,12467,6337,0
7.837134595999942,1584,1104,0
7.840096434000316,13571,3168,2336
7.844293948000086,5585,5057,1472
7.848126328000035,0,3216,0
7.851093753999976,1584,2608,0
7.854935581000063,6593,2304,0
7.858269825000207,10962,5649,1792
7.862035483,1200,1792,0
7.865976506000152,7601,1072,1248
7.869894280000153,8626,864,1232
7.873069869000119,800,1280,4961
7.8762405299999045,0,864,0
7.880039990000114,1104,8818,0
7.883196791000046,0,1952,0
7.887197682000078,624,7265,0
7.890059425000345,2272,5345,0
7.894070977999945,1440,5073,0
7.8973088170000665,16339,5649,0
7.901105495000138,8097,21765,10914
7.905233059000238,6577,12339,1904
7.909082168000168,12082,2832,0
7.913051593000091,4289,8402,5857
7.916137980000258,13763,16788,0
7.920008867999968,15523,8402,0
7.924138533000132,20228,2784,0
7.927333609000016,7441,1424,11714
7.931063387999984,1408,4209,0
7.935201266000149,11154,4865,4993
7.938184830999944,960,6913,0
7.942098428000008,4561,5121,0
7.945181191000302,2240,13059,0
7.949106475000008,13091,20244,528
7.952993292999963,1776,2320,0
7.956977414999983,3984,560,2544
7.9609184050000295,7921,11010,3312
7.964020454000092,2912,6945,0
7.967927991000124,2528,6129,0
7.971035278000272,0,1792,11858
7.9749435819999235,9906,1104,0
7.978877695999927,15571,1120,2416
7.98190237100016,1024,7649,0
7.985838259000047,13875,7441,0
7.98982510299993,28935,14579,4433
7.992878027000188,0,11666,784
7.99672155799999,14963,480,7969
8.00105607200021,18324,4881,0
8.004083804999937,0,5409,7537
8.007979802000136,10706,6401,3472
8.012004292000256,9394,5217,0
8.01510351900015,9762,4689,4193
8.018959719000122,20196,4257,11186
8.022978237000189,5121,5425,0
8.027022488000057,2896,2048,8402
8.029892953999934,35032,0,9010
8.03400025000019,10562,6785,11266
8.038059630000134,24309,9826,0
8.040897466999922,8450,2704,0
8.045037901000342,2512,3504,0
8.04892825900015,18660,416,3328
8.052108755000063,19988,2000,0
8.05598598000006,0,3840,2384
8.059836479000296,10498,2544,2240
8.063118147000296,0,3840,0
8.066985856999963,1280,1808,0
8.070117037000273,1024,1488,1696
8.074252887000057,7953,10002,0
8.078238823999982,16820,3296,1584
8.082081034000112,3440,9042,0
8.085317427000064,18500,5089,2960
8.089105431000007,15875,5793,0
8.093039859000328,8498,2304,0
8.096294286000102,20917,7537,0
8.100028988000304,21989,1968,0
8.10313126400024,6657,9266,0
8.10718021699995,848,4561,0
8.111134181000125,7249,2048,1440
8.114184006999949,0,11810,0
8.117207221000172,1392,2368,0
8.12129981299995,11298,3328,6417
8.125104360000023,768,5985,3728
8.128959097000006,2400,1056,0
8.132195799000328,4145,5921,6913
8.136032888000045,16996,6401,0
8.139990850000231,3904,10098,9730
8.14421372400011,13283,1008,5409
8.147162318000028,4817,3328,0
8.151037176000045,992,1808,0
8.154271640999923,32,9154,0
8.157169257000078,0,4145,0
8.161204717000146,8722,6145,0
8.164145303000168,208,1280,0
8.168058881999968,7073,5681,0
8.171331999999893,1008,1024,0
8.175116939999953,5377,4064,0
8.178967620000094,6913,2064,0
8.182244710000305,896,5889,0
8.186126207000143,1840,1312,0
8.189158583000335,768,2336,0
8.193002808000074,7329,2368,0
8.196284863000074,16083,5025,0
8.199969370999952,6001,6225,0
8.203209188000073,1280,2656,3392
8.207044365000002,2816,7761,0
8.211065798000163,14243,4529,2176
8.21431445899998,864,5713,0
8.21809434800025,26438,768,0
8.221316729000137,2848,13763,0
8.225243225000213,11618,2912,0
8.228954061999957,29367,14195,0
8.232272417000331,144,528,1056
8.236282970000047,8129,4865,0
8.239158643000337,1296,1984,0
8.243075518000296,3328,3088,0
8.246996348000266,14659,1584,1328
8.250922545000321,24806,1920,0
8.254054814000028,13091,1440,0
8.257957082000303,11634,336,0
8.260993670000062,5329,848,0
8.264906433000306,5937,1424,0
8.267973148000237,17572,0,0
8.27190840000003,14355,3072,0
8.274975283000003,9266,1328,0
8.278816559000006,15267,4177,0
8.28183527200008,24934,1280,0
8.285791066999991,10098,4945,0
8.289759587999924,3408,2928,432
8.292943782000293,3024,2704,0
8.29690507000032,3312,1264,0
8.299868305000018,13971,1440,0
8.30399601299996,1120,2192,0
8.30692951400033,96,3840,0
8.31067235899991,13763,5313,0
8.314939439000227,14067,3152,0
8.318084826999893,21253,3232,1024
8.32194613699994,6145,2336,0
8.324873026000205,112,3136,0
8.328984990000208,19988,4064,1392
8.332920675999958,12547,8962,0
8.336971927999912,17236,1328,0
8.339854328000001,33032,2304,0
8.344029897999917,9986,4513,0
8.347115723000115,13907,704,0
8.351040494000245,31863,12547,0
8.355071897000016,20917,1904,0
8.358109278000029,0,1232,0
8.361261181999907,0,1328,0
8.365196322999964,22117,3536,0
8.368311799999901,1008,2240,0
8.372127263000039,0,7009,0
8.375269414000286,18724,1808,0
8.379091967000022,37897,4609,0
8.382018127000265,3856,848,0
8.386126186000183,8258,3792,0
8.389216399999896,400,2048,0
8.393051080000077,47451,1120,0
8.396883360000174,18676,1792,0
8.399973368000246,3872,6193,0
8.403958639999928,13571,768,1792
8.407877417000236,31527,1504,0
8.411146815999928,2784,2480,0
8.414925379000124,16532,832,0
8.418062921,14947,4433,0
8.422093271999984,10594,3168,0
8.425953272000243,10402,1168,1280
8.42908387100033,11442,5745,0
8.433080257000256,14339,1808,0
8.436087249000138,5137,1232,0
8.439952393000112,7601,2976,0
8.444033500999922,5361,1456,0
8.447051031000228,2928,1680,0
8.451139163000335,5745,1504,2416
8.454212034000193,4321,3552,0
8.458022983000319,7009,2816,0
8.462081027000295,11698,1424,0
8.465151777000301,5521,1840,0
8.469102312999894,19140,3072,0
8.472251104999941,4833,1232,496
8.476133647000097,3408,2272,0
8.479827324000325,1824,1744,0
8.483066279000013,1248,1968,0
8.487077126000258,53469,1104,0
8.48996428800001,1696,2096,0
8.493951776999893,6161,2064,0
8.497221050000007,19828,1328,0
8.501098405999983,496,5633,0
8.50411090300031,2160,1920,0
8.50800684900014,3760,7473,2768
8.51207262600019,3024,5633,0
8.515058202000091,27366,2016,0
8.51909163900018,7153,576,0
8.522241134000069,14883,3376,0
8.52599852100002,19876,5345,0
8.529833558000064,1376,1088,0
8.533074618000228,256,5377,0
8.536072183000215,0,3616,0
8.539825567000207,0,2832,0
8.543067184999927,1936,816,0
8.546016683000289,0,9474,0
8.549875716000315,6593,2624,0
8.553312033000111,1744,5953,0
8.556890869000199,5969,928,0
8.559972110000217,240,2272,0
8.563838232000307,0,2848,0
8.566739478000272,1712,3376,0
8.570722689999911,5457,1792,0
8.573741165000229,10690,976,0
8.577932228000009,2816,2816,0
8.580983757000013,0,3040,0
8.584033050000016,1104,2768,0
8.588017911999941,11602,2048,0
8.591882004000126,4993,2048,0
8.594961839999996,5089,1248,0
8.598901066000053,5121,864,0
8.601924152000265,128,864,0
8.605907168000158,2816,3808,0
8.60880384200027,2256,2576,0
8.611911498000154,0,1024,0
8.615837229000135,8370,592,0
8.619054798999969,1200,1792,0
8.62300003900009,4721,336,0
8.625994167000044,4897,1904,0
8.629935234000186,3328,1120,0
8.633062604000315,1184,1264,0
8.637192502000289,4289,5121,0
8.640016533000107,0,3392,0
8.64413116500009,992,4433,0
8.647212399000182,944,2272,0
8.650090739000007,0,2160,0
8.654187481999998,5761,7585,0
8.657289077000314,3072,2496,0
8.661198944000262,3088,3696,0
8.664062299000307,0,768,0
8.668150271000286,1632,2816,0
8.67106859200021,2528,2112,0
8.675162115000148,6865,4353,0
8.678231401000176,5713,2304,0
8.682007158000033,0,1456,0
8.685214302000077,864,3552,0
8.689075186000082,3312,1280,0
8.692213689000255,608,1360,0
8.696114552999916,1072,1680,0
8.699056078000012,864,1600,0
8.702266298000268,512,1840,0
8.706235653000022,5377,4064,0
8.70991218600011,10082,2208,0
8.713087327000267,720,2192,0
8.71695625600023,6401,1904,0
8.720228982000208,7761,1952,0
8.72409797399996,2928,1952,0
8.727116084000045,1296,1280,0
8.731162544000199,2208,2096,0
8.734274748000189,14499,2896,0
8.738209412000288,13491,6449,0
8.742080027000156,7905,1728,0
8.74518504200023,1344,2352,0
8.748075702000278,0,1792,0
8.752092812000228,0,6129,0
8.755104414000016,6321,3072,0
8.75904764500001,10930,3360,0
8.762269602000288,1504,2848,0
8.765963725000347,0,2656,0
8.76922522399991,4161,2224,0
8.77224517500008,0,1392,0
8.776186489000338,7729,3232,0
8.779922353000075,13043,2096,0
8.783083447000081,2720,2240,0
8.78712668900016,480,2144,0
8.789989088000311,7089,2304,0
8.794126861000223,5521,2512,0
8.797151956000107,4593,0,0
8.801069460000235,15891,2992,0
8.804177642000013,3328,2928,0
8.807971508000264,5905,3152,0
8.811148907000188,7137,2144,0
8.815109218000089,3088,1248,0
8.818242560000272,7825,1328,0
8.822158267000304,21861,0,0
8.825102512000285,9714,1056,0
8.82897608300027,18900,784,0
8.832005995000145,3840,1968,0
8.835966034000194,1568,1376,0
8.839123665999978,3808,1120,0
8.842941865000284,5489,1024,0
8.84586988000001,17412,2320,0
8.849870908999947,17684,5921,0
8.85381818299993,19748,1184,0
8.856798280000021,4849,2272,0
8.860820468999918,624,2272,0
8.864054544000282,2160,1280,0
8.867912676000287,17348,2784,0
8.871045130000311,19700,1312,0
8.875019409000288,26710,4449,0
8.878909525999916,41754,2560,0
8.882061153999985,12082,1728,0
8.88598343800004,21173,2448,0
8.889808260000336,14611,1744,0
8.893009990000337,5793,2736,0
8.896946280000066,6497,1200,0
8.899840470000072,8834,3008,0
8.903898005999963,5825,464,0
8.90699295000013,28342,2320,0
8.910976477000077,5393,624,0
8.913982259000022,3072,2352,0
8.917977727000107,2720,2000,0
8.921071093000137,1616,1808,0
8.925024441999994,19796,2128,0
8.928800156000307,19204,1568,0
8.932144606000293,800,2320,0
8.935945096000069,34216,1024,0
8.939012730000286,592,2864,0
8.942940602999897,3344,2448,0
8.946047619000183,35400,2160,0
8.950005201000295,42154,2096,0
8.9531526640003,13251,1776,0
8.957087756999954,36584,2464,0
8.961186835000262,55997,1184,0
8.964290585000072,13011,2000,0
8.968193389000135,32151,6737,0
8.972081185000206,21205,2416,0
8.9752734409999,27654,1632,0
8.979030927000167,37081,2464,0
8.982078959000319,4561,1760,0
8.986132691999956,26230,1120,0
8.989308257000175,272,1184,0
8.993145771999934,27302,4193,0
8.997028147000037,37721,2128,0
8.999967686000218,65535,4064,0
9.004127620999952,65535,7889,2304
9.008048655000039,14659,2336,0
9.011214311999993,65535,1840,0
9.015072545000294,12547,3696,0
9.018914412999948,5089,1248,0
9.022272884999893,19204,1872,0
9.02624684500006,21573,2384,0
9.02932253300014,36873,3360,0
9.03309491500022,18180,4129,0
9.037034101000245,3184,2864,0
9.040004147000218,7937,3072,0
9.044016646000273,16724,1040,0
9.04728028799991,22613,1424,0
9.051224204999926,27254,6401,0
9.055085320000217,9906,1584,0
9.058247000999927,25526,3152,0
9.062158251000255,22549,1696,0
9.065291587000047,22389,1376,0
9.06917598400014,0,3952,0
9.072267302,9842,2992,0
9.076180506000128,35704,2992,0
9.079139165000015,33752,2016,0
9.083071896000092,24117,2960,0
9.087056067000049,42154,1456,0
9.08995143400034,62223,1808,0
9.094198596000297,22197,6193,0
9.098105080000096,16163,1664,0
9.101123979000022,3040,3728,0
9.105001952000293,14387,912,0
9.10824478099994,3040,3232,0
9.112071928000205,15763,1024,0
9.115051970999957,992,1840,0
9.118928975000017,672,2576,0
9.122078208999937,65535,1024,0
9.125978531000328,992,2816,0
9.129092532999948,16948,1008,0
9.133073928000158,10242,4353,0
9.136966910999945,21973,2176,0
9.139932080000108,2144,3328,0
9.143892418000178,2768,1984,0
9.146904548000293,480,1312,0
9.150820631999977,22053,2112,0
9.153882573999908,9762,752,0
9.157808452000154,6657,816,0
9.161078879000343,5745,1840,0
9.165025513000273,10258,2752,0
9.168001018000268,6097,1536,0
9.171981828000298,8033,5889,0
9.175049042999945,19556,768,0
9.17900763200032,19172,2464,0
9.183035802000177,9666,1328,0
9.18594747499992,0,2288,0
9.189078151000103,5073,1264,0
9.192942106999908,6417,3536,0
9.196991506999893,11698,1024,0
9.199848565000138,4577,1536,0
9.203935006999927,18164,2208,0
9.206975135999983,19732,2304,0
9.211118870000064,8882,5729,0
9.214915145000305,10290,1088,0
9.217973773000267,11474,3504,0
9.222088545000133,3248,1536,0
9.2250004980001,8434,1888,0
9.22909331200026,13747,1024,0
9.232115886999964,3984,2288,0
9.235953810999945,8001,5377,0
9.239224755000123,7169,2560,0
9.243076352000116,4497,3184,0
9.246095449000222,1360,944,0
9.249986636999893,13523,3696,0
9.254111750999982,288,2000,0
9.257023578999906,2912,2992,0
9.261125157000151,1696,3488,0
9.264214631999948,2448,1728,0
9.267998969000018,7537,1024,0
9.271098995000102,6401,2416,0
9.275139110000055,5377,2608,0
9.278220397000041,9234,2464,0
9.281988466000257,7601,1760,0
9.285111483000037,720,3152,0
9.289120504000039,9186,1616,0
9.292249452000306,1904,1376,0
9.29603603400028,2112,1264,0
9.299297245000162,9986,1536,0
9.303227484000217,2528,5473,0
9.306952136000291,1760,1680,0
9.310079620000124,9298,2560,0
9.314080268999987,1024,4161,0
9.317170113999964,6305,1712,0
9.321064066999952,3136,2480,0
9.324223948000053,1024,1760,0
9.328125899000042,5473,1424,0
9.331213749000199,6353,2656,0
9.335125468000115,256,2416,0
9.33819649399993,8690,1776,0
9.342110531000344,992,1584,0
9.345089283000107,2976,1888,0
9.348970705000283,11666,1936,0
9.35210261400016,1280,2304,0
9.356184490000032,5329,2816,0
9.359226467000099,3504,2992,0
9.363100859000042,1424,4097,0
9.366912913000306,7681,3328,0
9.369972965000215,11698,2768,0
9.374087265000071,1792,1040,0
9.377224030999969,2048,1328,0
9.381152461000056,14419,1520,0
9.384209290999934,352,1280,0
9.388122631999977,10194,1424,0
9.391274127000088,7633,2064,0
9.395053754999935,3536,3248,0
9.398892611000065,8370,2704,0
9.402195937000215,2976,2720,0
9.405069759000071,0,2128,0
9.408257500000218,0,16,0
9.411981563000154,576,6305,0
9.415063213999929,5985,1760,0
9.418968182000299,9650,6065,0
9.422057309000138,768,1584,0
9.425938425999902,768,5585,0
9.429024520999974,8498,1280,0
9.43291258599993,0,6081,0
9.436010292999981,11810,2416,0
9.439863548000176,3840,1376,0
9.442893797000124,0,1792,0
9.44677829300008,2208,1200,0
9.449839197000074,7841,1616,0
9.453768552999918,3408,2384,0
9.457009325999934,7137,800,0
9.461038270000245,6481,2496,0
9.46402037200005,832,1888,0
9.467988202000015,3728,2608,0
9.471038234999924,2144,1760,0
9.474981969000055,4353,1280,0
9.478040664000218,10738,3520,0
9.481795484000031,3008,6785,0
9.485032288000184,688,2816,0
9.48890239299999,4625,864,0
9.491938847000256,0,2576,0
9.495868438000343,4801,560,0
9.498864206000235,9218,2896,0
9.502855315000033,5409,1552,0
9.506125559000338,848,3360,0
9.509782514000108,7489,1024,0
9.51301979200025,1712,944,0
9.517152011000235,2912,2000,0
9.520015675000195,2640,1760,0
9.524117053000282,336,2784,0
9.527240126999914,3744,1600,0
9.53101851800011,6241,1872,0
9.534056330000112,1808,2080,0
9.538101745999938,11634,1744,0
9.54119153900001,3328,2192,0
9.544918138999947,0,3424,0
9.54814412099995,6241,2144,0
9.552065694000248,1136,2400,0
9.555053321000287,5729,1072,0
9.559071950000089,8690,3424,0
9.5621967269999,1184,1024,0
9.565951993999988,0,1824,0
9.569017781000184,6481,2416,0
9.572998446999918,2096,1024,0
9.576249232999999,3840,2560,0
9.579917885000214,7793,1376,0
9.5830936010002,1536,1296,0
9.587098895000054,0,1952,0
9.589992506000272,10706,3616,0
9.594124491000002,1440,880,0
9.597099909999997,3920,2000,0
9.60100852000005,3504,3248,0
9.604090098000142,0,2048,0
9.607096315000035,3648,1632,0
9.611146255000222,9362,3472,0
9.614867834000052,2640,1824,0
9.618137724999997,10226,1792,0
9.622083916000065,1424,2224,0
9.625041471000259,768,2048,0
9.628990447999968,11186,2352,0
9.632060510999963,560,1792,0
9.636033374999897,14707,1392,0
9.639083992999986,6913,2160,0
9.643161609000344,2064,5553,0
9.646126622000338,1168,1200,0
9.650049292999938,8962,2608,0
9.653157120000287,2704,976,0
9.657174193000174,7393,3888,0
9.661053384000297,5105,3248,0
9.66401907799991,784,2784,0
9.668039031000262,4048,2016,0
9.671195244000046,5265,3168,0
9.67497721000018,3408,1312,0
9.678200517000278,6993,2208,0
9.68197097400025,2464,2864,0
9.68499754200002,320,2544,0
9.689061352999943,7025,1840,0
9.692177110000102,1120,1328,0
9.695928302000084,4097,2528,0
9.699035057999936,7025,2400,0
9.703015846000199,2272,1792,0
9.70606951300033,4577,2256,0
9.709897314000045,10258,2352,0
9.713115823999942,176,1792,0
9.7169225560001,3760,5921,0
9.719970998000008,1216,3280,0
9.723914784000044,4209,3040,0
9.72783366800013,9794,1824,0
9.730972287999975,16548,2480,0
9.734873389000313,1648,1696,0
9.737968893000016,7329,688,0
9.741788183000153,2208,2256,0
9.744861647000107,2304,3024,0
9.74876479400018,6273,1456,0
9.75173328100027,0,1792,0
9.755819855000027,6385,2080,0
9.758993335000014,19236,2368,0
9.762789395000254,5457,1200,0
9.765915770999982,9906,1712,0
9.76981641500015,1072,944,0
9.77292193500034,7377,1776,0
9.776982979999957,256,432,0
9.779862141000194,3360,2304,0
9.78393813699995,13219,1424,0
9.787027439000212,4625,768,0
9.79106642800025,7089,3024,0
9.79405237500032,2384,672,0
9.798005378000198,10546,2304,0
9.801118571000188,36152,2656,0
9.80505352199998,14355,3680,0
9.808922692000124,11042,2528,0
9.8119156140001,2848,1776,0
9.816006313000344,4833,3232,0
9.81914020000022,16916,2192,0
9.82307645400033,6545,4689,0
9.826333618000263,6401,2800,0
9.829942660000142,3856,2368,0
9.833933545000036,1280,1888,0
9.837196718000087,1216,1584,0
9.840943624999909,12803,2304,0
9.84421970700032,5585,2512,0
9.847971360999964,8818,1552,0
9.85120403000019,3824,576,0
9.85495671400031,5617,1840,0
9.858241798000108,10162,752,0
9.862140334000287,784,2256,0
9.865032319999955,7777,2208,0
9.86899645099993,3376,1312,0
9.87220868300028,1472,2272,0
9.876158936000138,5233,6401,0
9.879860916000325,10466,1952,0
9.88305923400003,2704,2816,0
9.8869753580002,1360,2800,0
9.89001596900016,7121,2128,0
9.894123907999983,2592,1280,0
9.897017761999905,6577,896,0
9.901099970999894,6481,1280,0
9.904216254999938,2400,2464,0
9.908085434999975,1120,1200,0
9.911244513999918,4064,2304,0
9.91501420700024,7793,2080,0
9.918132655000136,10002,2448,0
9.922180200000184,4897,5681,0
9.925209909999921,288,2768,0
9.929118304999974,4561,3120,0
9.932086681000328,880,1600,0
9.936005755000224,6081,6369,0
9.939166065000336,7425,1792,0
9.942999883000084,4161,3664,0
9.946837086999949,4305,2544,0
9.949982360999911,2864,3056,0
9.95409900200002,6561,1856,0
9.957196242999999,8978,3472,0
9.961125065000033,8754,2032,0
9.964190961999975,1200,2416,0
9.967095763000088,0,1008,0
9.971190161000322,6401,3840,0
9.975091085000258,14051,2048,0
9.978081185000065,21157,2512,0
9.98206589900019,0,2464,0
9.985080224000285,1424,2464,0
9.98909655000034,3184,3072,0
9.992167498000072,3136,1536,0
9.995963111000037,1360,1536,0
9.999029194000286,8498,1824,0
10.002951813999971,0,2064,0
10.006072833999951,3408,3536,0
10.00981151399992,8498,1056,0
10.013051687999905,2048,1520,0
10.0168951200003,4513,2208,0
10.01992406599993,2976,1968,0
10.02311500399992,0,2256,0
10.026960269000028,4353,3088,0
10.030830436000088,9218,1536,0
10.033990777000326,2800,2864,0
10.037919194000096,16996,1184,0
10.040921460999925,1456,2640,0
10.044843111000318,16964,2576,0
10.047827489000156,15667,1440,0
10.05177907999996,6049,2400,0
10.054798254000161,272,1744,0
10.058891442000004,3872,3312,0
10.061943988000166,608,1712,0
10.065946322999935,5505,3840,0
10.06986064900002,13011,1840,0
10.07302423300007,816,2400,0
10.077000991000205,4865,2816,0
10.079846466000163,3840,2288,0
10.083984619000148,496,1696,0
10.086996731,3840,2768,0
10.09081481300018,6385,2048,0
10.094011357999989,1600,992,0
10.09785389100034,2384,1136,0
10.100951011000234,3376,3504,0
10.104024334000314,0,1792,0
10.108022661000177,10418,4129,0
10.111982481000268,5281,2544,0
10.114888836000318,2928,1680,0
10.11904174900019,6689,3024,0
10.122199462000026,624,2048,0
10.126067131000127,544,1456,0
10.129182263000075,8594,2384,0
10.13288809300002,768,1616,0
10.136187147000328,3680,2336,0
10.139904762000242,7425,2304,0
10.143034531000012,0,1904,0
10.146294455000316,5217,2208,0
10.149944860000232,11090,4865,0
10.154106232000231,1280,2336,0
10.157072245000109,3728,2976,0
10.161136615000032,3856,1920,0
10.164081458000055,16,1488,0
10.168094927000311,5089,1840,0
10.171244425000168,3248,3264,0
10.175112465999973,15923,2640,0
10.178246622000188,30759,1440,0
10.181949268000153,304,5105,0
10.185191662000307,0,2032,0
10.18908413600002,5969,1488,0
10.192187649000061,1264,1824,0
10.196107738000137,6401,2336,0
10.1989889700003,4833,2112,0
10.202965807000055,0,1296,0
10.206173374000173,2080,2336,0
10.20981283500032,7265,1744,0
10.213066803999936,1792,2016,0
10.217051793000337,4865,1984,0
10.219964810999954,2832,2544,0
10.224085985000329,48,1680,0
10.227239843999996,2144,2528,0
10.231145975000345,6161,2192,0
10.234248217000186,2800,1792,0
10.238164608000261,4161,2288,0
10.24126455600026,1600,2400,0
10.245154062999973,768,2096,0
10.248123079999914,6001,2080,0
10.25217028599991,2720,2304,0
10.25526730799993,6865,1968,0
10.25901267800009,12178,4465,0
10.262216601000091,0,1904,0
10.265918988000067,624,2368,0
10.269063409999944,6273,1280,0
10.273101202999896,384,2208,0
10.276231965000079,6161,2080,0
10.279857696999898,6897,3328,0
10.2831672719999,0,1504,0
10.286264107000079,0,1760,0
10.289888876000077,7857,2128,0
10.293099245000121,912,880,0
10.296989878000204,4305,1712,0
10.299949762000324,3744,2304,0
10.304016969000259,0,1312,0
10.307004304000202,3328,2768,0
10.310858995000217,7329,2112,0
10.31397049599991,288,2784,0
10.317887446999976,3680,2080,0
10.320977267000217,4129,2512,0
10.324012078000123,0,1968,0
10.327935203999914,6145,4945,0
10.331051884000317,2832,2768,0
10.335162561000288,5185,3392,0
10.338822628000344,9666,3328,0
10.341871119000189,2112,2816,0
10.34576620200005,160,1760,0
10.348882067999966,10018,2896,0
10.352719446000265,848,2048,0
10.35580595600004,7761,2656,0
10.35973124200018,5489,3136,0
10.362749374000032,0,2288,0
10.365809962000185,544,1552,0
10.36973299400006,4577,8033,0
10.372780338000211,1360,1744,0
10.376740963999964,6225,3360,0
10.380707925000024,3392,2384,0
10.383747053000207,2048,2720,0
10.387740575999942,2800,1680,0
10.390739836000193,5617,1840,0
10.394696875000136,4737,2624,0
10.39774787000033,6625,3104,0
10.401723632000085,624,1472,0
10.404740575000233,992,2096,0
10.4087218210002,5121,2560,0
10.411715729000207,2064,2256,0
10.41576278499997,6049,1264,0
10.41878961500015,5697,2544,0
10.422733301000335,0,2400,0
10.425785424999958,1840,2512,0
10.429696795999917,6081,2192,0
10.432740074000321,976,1936,0
10.43664838399991,4881,1888,0
10.439714165000169,4657,2416,0
10.442784542000027,512,672,0
10.446987646000252,3328,2640,0
10.451089974000297,4497,2320,0
10.454058595000333,1888,2624,0
10.458000673000242,3280,1696,0
10.461067435000132,2256,2816,0
10.464751149000222,352,1616,0
10.468003539000165,8177,1616,0
10.471937418999914,3152,1232,0
10.47498429899997,5265,1600,0
10.478920745000323,8354,3920,0
10.48195843900021,480,1328,0
10.485965047000263,16,3632,0
10.488987819000158,8049,2240,0
10.492892179000137,1360,768,0
10.495964194999942,4961,2480,0
10.499825777000297,2496,2416,0
10.502993462000177,480,1200,0
10.50695404299995,1984,1504,0
10.50994454900001,8354,1216,0
10.514142380000067,240,1280,0
10.517170458000237,4353,2720,0
10.521162374000141,5889,2560,0
10.5242007249999,480,1632,0
10.528024258000187,1792,3472,0
10.531269220000013,4321,2720,0
10.534922738000205,2336,1504,0
10.538167833999978,8818,2304,0
10.54192889900014,1472,3856,0
10.545055223999952,1776,2464,0
10.548982124000304,4064,864,0
10.552094048000072,16,2320,0
10.556035510000129,5345,2288,0
10.559084186000291,6913,2032,0
10.562979043000269,0,1840,0
10.566030730999955,2384,1952,0
10.56993351600022,4945,2224,0
10.57309350300011,848,2176,0
10.577102934000322,3840,1712,0
10.580023871000321,3952,2272,0
10.583151999000165,0,2144,0
10.587003484999968,1696,4529,0
10.590036239000256,5521,1792,0
10.59408280300022,4257,3440,0
10.597911254000337,3072,1024,0
10.601041083999917,4064,2352,0
10.60491894300003,240,2320,0
10.60800938500006,5537,1648,0
10.611920155000007,2656,2080,0
10.615194686999985,3424,2048,0
10.618934471000102,10738,2896,0
10.62205820600002,2112,1488,0
10.62584441900026,720,3088,0
10.62905098200008,4961,1024,0
10.632987691999915,1808,2656,0
10.635927359000107,7745,3248,0
10.639844364000055,8290,3328,0
10.642820809000114,0,720,0
10.646774665000066,1696,3184,0
10.649816810000175,5889,2560,0
10.653889363999951,416,1792,0
10.657057911000265,3888,2272,0
10.660956787000032,5025,1232,0
10.663908156000161,944,2192,0
10.667951815999913,2592,1536,0
10.67096841800003,4625,2544,0
10.674880404000305,3760,1408,0
10.677971956999954,7521,1360,0
10.681905867000296,336,2688,0
10.684892974999912,240,2672,0
10.688838980000128,4337,2816,0
10.691872424999929,368,2304,0
10.696034453000266,6657,1888,0
10.698961508000139,8466,3504,0
10.70290779700008,336,2016,0
10.706137949000095,768,2080,0
10.709877636000328,6897,1792,0
10.71320204299991,2272,1616,0
10.716969527999936,3184,2400,0
10.71995010899991,4113,1968,0
10.724030396000217,624,880,0
10.726946959000088,0,1920,0
10.729992585000218,3840,944,0
10.734090400000241,4113,7121,0
10.737048063000202,3072,2976,0
10.741123543999947,4369,4353,0
10.744018644000334,0,2608,0
10.748018105000028,2800,2304,0
10.75100286299994,4817,1872,0
10.754996116000257,3696,1840,0
10.75824091200002,9202,3504,0
10.7621167100001,1584,5729,0
10.76502623200031,0,1888,0
10.769083600000158,5121,2464,0
10.772031144000266,0,1984,0
10.776067977999901,3856,1888,0
10.779087216000335,10530,5649,0
10.782939369999895,1296,2096,0
10.78615322700034,0,2832,0
10.789904016000037,9218,2144,0
10.793089084000258,2912,3072,0
10.79697741200016,5457,2544,0
10.800001583000267,5169,2768,0
10.803121120000014,0,1456,0
10.807138097999996,272,7425,0
10.810047142000258,5537,2352,0
10.81396904200028,1808,5377,0
10.81719414600002,2304,1728,0
10.821104587000264,5713,5057,0
10.82423565099998,0,2320,0
10.828039272000296,3072,0,0
10.830959457000063,448,1984,0
10.835045080000327,2304,2784,0
10.838013643000068,9218,2240,0
10.84207795500015,1648,2272,0
10.845153333000326,144,2048,0
10.848863832000006,6321,2816,0
10.852034894000099,1792,2224,0
10.856108672000119,4769,1856,0
10.859076003000155,8418,3024,0
10.862990523000008,224,1536,0
10.866121160000148,0,2576,0
10.869120818000283,9010,2208,0
10.873064890000023,2672,2336,0
10.876886029000161,4289,2160,0
10.879907967000236,2720,4016,0
10.884043054999893,496,1552,0
10.887164898000265,4785,8017,0
10.89094111600025,3248,2048,0
10.894163435000337,1808,1744,0
10.897921062000023,4241,4609,0
10.900940548000108,3760,2144,0
10.90406448900012,0,3328,0
10.907962199999929,2656,3056,0
10.911855188000118,2592,2992,0
10.91496440300034,7137,1488,0
10.918896376000248,10210,3360,0
10.921973970000181,4401,1792,0
10.92587163799999,432,3392,0
10.929000351000013,2448,1648,0
10.932037127000058,0,720,0
10.935878584999955,9698,4593,0
10.939748960000088,6913,2864,0
10.94281468600002,3296,4337,0
10.94670635700004,5313,2096,0
10.949728210000103,1872,2304,0
10.952917421000166,96,800,0
10.957008762999976,4097,8786,0
10.959847400999934,3952,1648,0
10.964008427999943,3056,3360,0
10.967979741999898,1376,2256,0
10.970993103000183,9506,2560,0
10.974952287000178,560,3488,0
10.977834752000035,10578,3424,0
10.9819233610001,2336,1904,0
10.984985204000168,0,2864,0
10.987922246999915,8930,2848,0
10.991831833000106,2592,4673,0
10.995852975000162,20853,1904,0
10.998877856000036,1024,2960,0
11.002842103000148,4321,2320,0
11.006128782999895,7265,2048,0
11.009803057000227,1712,1088,0
11.01308105499993,7937,1168,0
11.017116621000241,11122,2928,0
11.02003275900006,3472,2816,0
11.024034611999923,7473,2736,0
11.027923694000037,8786,1504,0
11.03109791900033,14563,3056,0
11.035011411000141,7521,1472,0
11.038116532000004,592,2560,0
11.041964981000092,8690,2768,0
11.04505067900027,2128,1280,0
11.04889269100022,16884,1936,0
11.052280575000168,3616,2288,0
11.056233711999994,10034,4513,0
11.059815968000294,9474,1280,0
11.063120914000137,7841,1616,0
11.066928254000231,4753,2864,0
11.070188457000313,0,1280,0
11.07321483900023,8722,1536,0
11.07694979400003,8674,6177,0
11.080844225999954,14611,400,0
11.084026831000301,12515,2272,0
11.087979597999947,4865,4657,2080
11.092033843000081,13795,1824,0
11.095071099000052,24149,2544,0
11.098915288000171,34824,3536,0
11.102177893000317,25046,3664,0
11.10616118400003,28150,4561,0
11.109888350000347,2000,2672,0
11.113089523000326,65535,2064,0
11.116908779999903,2896,0,0
11.119977999000184,6881,3040,0
11.123270621000302,448,2320,0
11.12712104000002,47115,4529,0
11.131094284000028,19380,2352,0
11.13423538699999,54541,1776,0
11.13801073600007,30471,2640,0
11.142121590999977,20853,2304,0
11.145067550000022,6881,2480,0
11.148929330000101,7169,784,0
11.152062013999966,12130,2720,0
11.155997453000055,2304,736,0
11.159078857000168,5601,1872,0
11.163030601000173,32647,1888,0
11.166956457000197,11490,1632,1024
11.170945858000323,12307,2816,1024
11.174089472000105,19524,1680,0
11.177938524000183,4385,1328,0
11.181231024000226,6145,2400,0
11.185157260000324,15075,4000,0
11.189076168000156,28182,2608,0
11.192213216000255,12771,3808,0
11.196133748000193,3744,1536,768
11.199097642000197,1024,2224,0
11.202953784000329,6209,7601,0
11.20690172500008,1776,4145,2304
11.209978871000203,5121,11218,0
11.213890317000278,480,8930,0
11.217204024000239,12034,1792,0
11.220992906999982,14595,7425,0
11.224907489000088,20597,3184,0
11.228061339000305,22437,1696,0
11.231832206000036,39353,7025,1520
11.235831555999994,44042,3184,496
11.238874012999986,2608,3552,0
11.242805800000042,9538,3088,0
11.24674018199994,5281,1456,0
11.24977621500011,10754,1968,0
11.254009958000097,20757,2416,0
11.257050731000163,10322,1680,0
11.261020705000192,24565,6609,0
11.264758263000203,15107,1824,0
11.268033806999938,21589,6897,0
11.272014670000317,10770,6225,0
11.275042888999906,5137,3328,0
11.279004312000325,13363,4737,0
11.28294821899999,11794,608,256
11.286033021000094,3344,2544,0
11.289860729000338,28198,2304,2928
11.294018121000136,2048,4977,5121
11.297875100000056,29095,3184,0
11.300953396000295,35672,9426,0
11.304928826999912,9026,864,4321
11.309028149999904,29447,2704,4048
11.312821010000334,13523,1312,4401
11.31609041999991,12547,1568,0
11.319974307999928,46091,3696,0
11.323890721000225,17156,1792,0
11.327189825999994,34984,2304,0
11.33094946700021,8738,2144,0
11.335027188999902,1280,3808,6049
11.338029864999953,7857,6481,0
11.342099826000322,22805,9106,0
11.345255642000211,22277,1792,992
11.349013437999929,48795,4241,1424
11.353049476000251,14707,7249,2144
11.357159852000223,1568,3728,2128
11.36103442600006,768,3536,0
11.364165706000222,8690,2896,0
11.368085820000033,7921,2736,0
11.371214310000141,5713,2016,0
11.375012685999991,12563,2784,0
11.378225056000247,15283,1760,0
11.381947805999971,13907,4865,0
11.38525782600027,4785,7985,0
11.389204940000127,20549,2816,0
11.39298888400026,6657,2224,0
11.396129457999905,23621,1184,0
11.399925300000177,9682,4289,0
11.403117365000071,7137,5185,0
11.407226400000127,15667,5729,6145
11.411125958999946,544,768,0
11.41405831200018,0,12483,0
11.418065661000128,0,12451,3408
11.421225881000282,2400,3936,0
11.425103426000078,13603,1440,0
11.428258784000263,11538,2560,0
11.431972754000071,4273,6529,0
11.435292190999917,4209,2512,0
11.439186176000021,4849,5329,0
11.442049901000246,3872,288,0
11.446044449000055,6913,5025,0
11.449991651000346,16628,784,1072
11.454120628000055,12034,2112,8017
11.457276466000167,3344,1344,3408
11.461200664999978,1792,3728,0
11.464187997999943,0,704,0
11.468121508999957,7105,1952,0
11.471232930000042,3968,3472,0
11.475156900000002,18692,3280,0
11.478275533000215,16484,1456,0
11.482119347000207,1872,17684,1440
11.486178707999898,8033,1504,0
11.489072540000052,0,1824,0
11.492127412000173,0,1936,0
11.49624913100024,1504,3648,8626
11.499998707000032,10242,320,9474
11.503882584000166,7985,3072,0
11.507026252000287,10386,4433,0
11.510918686999958,14387,1312,0
11.514042791000065,2592,560,0
11.517954144000214,0,2320,2304
11.521061894000013,752,4689,704
11.524978714000099,1216,9810,0
11.528873916000066,6113,1456,0
11.531905938999898,4177,1968,1200
11.53580621500032,16307,960,0
11.53884794700025,5089,480,0
11.5427790990002,42250,2416,0
11.546851365000293,25046,2496,0
11.549879837999924,4305,2256,0
11.554019875999984,19764,2208,0
11.557988928000213,15699,1904,1520
11.561013455000193,4097,3168,0
11.564006175000031,0,2608,0
11.567982810000103,2288,10162,0
11.571046879000278,4977,752,0
11.575025727000138,8994,4641,512
11.57895143299993,19940,4209,0
11.581953417000022,21429,9362,0
11.585958931000278,8274,8017,432
11.58981285300024,3488,2384,0
11.593032917000073,19348,912,5457
11.59705222599996,3952,12547,6881
11.601122045000011,12627,1792,0
11.604061811000065,9986,1792,0
11.608170549000079,2528,8338,0
11.612122321000243,6705,1744,2896
11.615147021000212,800,2976,0
11.619142979000117,14675,1280,0
11.622001369999907,0,3760,0
11.62521615500009,0,1328,0
11.62916519700002,9874,5041,0
11.633062664000136,3328,2672,0
11.63616765200004,3472,2992,0
11.639982248000251,6257,5489,1696
11.643156686000111,320,1088,0
11.647141786000248,1648,3760,0
11.650022383000305,4529,4032,0
11.654192082999998,6161,6225,976
11.658111326999915,10658,1616,0
11.661231175000012,3760,2832,0
11.664964460000192,480,1200,0
11.668140568000126,2048,1360,7521
11.67224107500033,2192,2992,15107
11.676293368000188,27894,10658,4865
11.680084219000037,40569,13923,19124
11.684197105000294,432,15011,34216
11.688209459000063,19476,21429,12403
11.692067512999984,7857,704,0
11.696157698000206,14259,3248,3728
11.699947762000193,18068,6705,6849
11.703114450000157,6337,4337,0
11.707105631000104,8530,2304,0
11.711091956000018,18228,1696,1344
11.714046384000085,2704,3872,0
11.71811555100021,10530,4097,0
11.721236248999958,16131,2272,0
11.725021864000155,0,5857,0
11.728209647000313,15955,3088,0
11.731960553000135,16548,1792,0
11.735263018000296,11442,1888,0
11.739195714000289,10002,4529,0
11.743109817000004,14387,256,0
11.74618403400018,1568,1648,0
11.749938903999919,12387,1824,0
11.753103261999968,368,208,3984
11.75714213800029,6161,8450,2592
11.761102386999937,14723,3216,0
11.764184113000283,32,6401,0
11.768117658999927,8850,9522,1616
11.771260214999984,1424,4032,0
11.775905198000146,14931,10978,12339
11.779163549000259,14227,8962,0
11.783156781000343,7185,2016,1888
11.786249605000194,4897,5857,0
11.790017663000071,16692,26326,0
11.794113947999904,11010,3840,0
11.797878324000067,10498,6129,1024
11.800990535999972,5313,1824,0
11.804906631999984,3840,1184,0
11.808025726000324,15635,5121,0
11.81185460100005,0,5745,0
11.814940814000238,8946,672,0
11.818872168000325,9682,4561,0
11.821974639000018,1808,4097,0
11.825935682999898,2304,4016,1536
11.82982995500015,9362,10194,0
11.832926757000223,9570,2304,0
11.836782836000111,14419,6177,1248
11.840773788000206,17524,1792,2048
11.84473694799999,4705,12995,3504
11.848953234999954,24694,6497,4289
11.852875857000072,16980,7777,13571
11.855998762000127,768,2688,0
11.859801279000294,1792,7217,2304
11.862933098000212,7057,4097,0
11.866958201000216,10578,6833,0
11.870952513000248,12050,1280,512
11.873997185000007,0,18068,0
11.87785840000015,1568,1648,0
11.881031380999957,464,3232,0
11.884852773000148,2704,5377,0
11.887852003000262,0,2816,0
11.891816823000227,0,6625,1232
11.894958925000083,10498,12258,880
11.899004973000046,27382,6097,0
11.902920158000143,15107,2096,0
11.906122431000313,25862,3328,0
11.909979307999947,38137,4913,6241
11.91396295200002,7569,3312,816
11.917263505999927,7601,11074,0
11.92116646300019,8482,2896,0
11.924282031000075,4401,304,0
11.928227362000143,2912,3200,2304
11.931882588999997,0,1280,0
11.935218523000003,10418,1792,0
11.939015030000064,26854,4193,0
11.942245876000015,9730,3504,0
11.9459746550001,4641,0,560
11.94908883900007,6913,2032,0
11.953097854000134,6129,6913,2800
11.957061517000056,12307,3648,7425
11.960147267000139,2736,672,0
11.964164171999982,2624,3328,0
11.968142269000055,2512,1248,1712
11.971227065000221,368,896,0
11.974960857000042,5121,3328,0
11.978082007000012,4289,9746,0
11.981857940000282,8161,3888,0
11.985291100000268,9538,1216,912
11.98921084199992,1328,3152,752
11.993044547999943,14291,6065,0
11.99690537000015,14435,11682,2048
12.001039690000198,512,21429,6065
12.004081080000105,22997,768,0
12.00790029000018,12627,1584,0
12.011208041999907,864,3248,0
12.0149635759999,6593,6561,4273
12.01809363800021,2464,2928,0
12.02197476099991,1520,5297,0
12.025907003000157,9474,2192,0
12.02897524500031,3280,1328,0
12.032853157000318,3712,3104,0
12.036184268999932,7169,4625,8818
12.039913689000059,4673,4641,0
12.043106391000038,0,1280,0
12.047025279000081,0,4353,0
12.049977056999978,7329,1888,0
12.053873487000146,3840,1024,0
12.057119943000089,5185,2304,0
12.060996204000276,672,3312,0
12.064174905000073,2720,1280,0
12.067079144000218,0,1280,0
12.071059460000015,0,6401,0
12.07411154700003,0,7505,0
12.077078333999907,512,944,0
12.08090712100011,0,2096,0
12.084202385000026,3664,6033,0
12.088056891000178,592,2912,0
12.09098126500021,14435,3488,0
12.095004901000266,9474,976,3168
12.098841051999898,624,9794,464
12.102003504000095,13667,6401,816
12.105937866000204,5473,4032,7409
12.109853828000269,5361,3792,1952
12.113904603000265,6001,11522,1712
12.116966953999963,0,12146,0
12.120813278000242,40745,2000,0
12.12386404200015,4753,1744,0
12.127770859000066,21541,8434,0
12.13173125100002,42202,4321,400
12.134761835000063,288,3136,0
12.138849758000106,17844,3440,768
12.14296569499993,9986,1904,2576
12.145975506000013,0,992,1536
12.149833910000325,5313,7729,0
12.152933363000102,8978,10722,0
12.15690022400031,18548,8450,928
12.160936780000156,5889,9986,0
12.163919633000205,3168,2128,0
12.167893687000287,1952,720,0
12.171037796000292,5121,1456,0
12.174963155000114,2144,7729,0
12.178823209000257,17668,12547,4481
12.18182970900034,3840,13395,0
12.186024376000205,5377,1680,4913
12.189808466000159,14323,2784,0
12.193977601999904,6513,26998,16532
12.197806025000318,5585,20004,15795
12.201185736000298,13283,592,0
12.20502855399991,10194,512,6049
12.208998660999896,3680,6497,0
12.21215069100026,9490,5553,0
12.214997619000314,0,7537,0
12.21916923200024,14307,4513,224
12.223171920999903,22309,8930,1072
12.227144618000239,7377,13827,1280
12.230938294000225,65535,21333,12835
12.234994427999936,6113,3664,0
12.238071664000017,8626,3920,5681
12.24220507300015,3504,1792,2768
12.245948410999972,0,6913,1584
12.249054678999983,2576,1520,1488
12.253205365000213,2720,3168,1280
12.257010769000317,3328,0,0
12.26009244900024,13059,1920,0
12.264084432000345,4080,4177,0
12.267211434000274,1632,576,2080
12.271103501000198,320,4865,0
12.274184017000152,224,2800,0
12.278109142000176,4897,1840,3840
12.28100584699996,0,4449,0
12.28506169100001,0,6865,0
12.288039936000132,1216,2304,0
12.292084578999948,9746,8017,0
12.295012198000222,0,768,10178
12.299164493000262,3104,8113,3024
12.302187616000083,0,800,368
12.306170335999923,2608,14339,3376
12.309822525000072,144,784,0
12.313131657000213,8434,25270,832
12.317105337000157,9842,6145,0
12.320057100000213,0,1744,0
12.324118135999925,11506,2704,0
12.32707207500016,1616,2048,0
12.330956194999999,16131,6417,0
12.335064240000065,4961,5361,0
12.337942822000059,6385,6337,0
12.342105404999984,4561,5489,416
12.34518792200015,2048,672,0
12.34892178300015,10210,2240,0
12.353033033999964,13075,1376,0
12.356165438000062,23589,2944,0
12.359948834000079,4593,1792,5649
12.363102358000106,5121,2816,0
12.367147722000027,13395,3840,0
12.371061990000271,2736,1200,0
12.374130981000235,6257,1200,0
12.37804590199994,8033,3472,0
12.380977884999993,1296,2384,0
12.384952123999938,752,6913,0
12.38806453999996,464,1200,3072
12.39191640900026,224,3488,0
12.394989691000319,1120,1616,0
12.398911947000215,9650,4865,0
12.402027619999899,4865,1568,0
12.405914095000298,1472,13475,0
12.40989427300019,1904,17012,6497
12.413039400000343,0,8626,0
12.416930532000151,16580,736,544
12.420007295000232,608,3232,0
12.423799062999933,8610,6145,0
12.426824169000156,13491,112,0
12.430768096000065,13123,2816,0
12.434714345999964,6833,1104,0
12.437984667999899,6305,5713,0
12.441952322999896,1776,5153,0
12.444878121000329,0,17396,0
12.448868879000202,22197,768,0
12.451901152000119,528,1712,0
12.455708577000223,10322,928,400
12.458916779999981,7649,3760,0
12.462913106000087,1168,11362,0
12.466861911000251,3152,544,1184
12.470924596000259,11458,1792,1120
12.473969004000082,9618,2528,0
12.476871144000143,0,752,0
12.48075242799996,2912,544,0
12.483866563999982,3504,5873,0
12.487975144000302,2576,2320,0
12.492026108000118,15587,1968,5377
12.494948155000202,9650,16532,0
12.49895498800015,14819,2048,0
12.503122507000171,5681,6257,10418
12.507004310999946,7601,1792,6657
12.50991306800006,9986,3952,0
12.513835582999945,1792,1376,0
12.517887226000312,15011,4273,1488
12.521232510000118,24549,12339,6353
12.525019690000136,19748,5617,0
12.529047205000097,25078,1568,0
12.532073953000236,25254,10226,0
12.536093900000196,18964,3312,0
12.53989546799994,14083,1312,0
12.543087739999919,8962,1184,0
12.546896506999929,6353,2160,0
12.550025785000344,12082,1808,0
12.554000550000183,528,6145,0
12.557025410000278,9362,1072,0
12.561107808000088,6257,2464,0
12.564096214000074,0,2352,0
12.568046076999963,0,6145,1792
12.571130129000267,0,1792,0
12.57493759199997,15283,6913,0
12.57803106900019,13219,8786,0
12.581920807000188,3488,4865,0
12.586025844000233,15267,672,3008
12.588999774000058,17364,5889,0
12.592236550000052,0,5281,0
12.596000361000279,20853,2560,1104
12.59995060600022,20228,8818,5041
12.603940343999966,3616,8450,0
12.607979716000045,3120,2256,10594
12.61206872899993,28390,1376,19092
12.614965262000169,16468,8946,0
12.61915025899998,22277,3344,2416
12.622984397999971,5217,6353,0
12.626142854000136,8818,14083,0
12.62993872800007,28230,11522,0
12.633995551000226,1072,1792,0
12.6370364899999,6913,2928,976
12.641158131000338,12034,8498,1104
12.645015673000216,1296,752,0
12.647930328000257,5745,2192,0
12.652016958000331,2384,608,0
12.655102104999969,6177,848,0
12.659011755999927,1632,2112,0
12.662053237000237,6161,2048,0
12.665099791000102,0,1184,0
12.669133669000075,5633,1376,0
12.672089098000015,1696,736,96
12.676034065000295,8802,6337,0
12.679918791000091,18308,864,0
12.683062644000074,4273,1936,0
12.686469947000205,0,1632,0
12.689866090000123,0,2016,0
12.693105965000086,1664,2896,0
12.696809423000104,5057,576,0
12.700193311000021,15475,256,5825
12.703946595000161,3248,1232,0
12.707889411999986,6609,2592,9442
12.711003507999976,20981,1056,0
12.714869271000225,10898,10322,0
12.718723409000177,6449,2176,0
12.721813901000132,19956,1024,0
12.725764030999926,1200,304,2096
12.728806567999982,8914,2480,0
12.732897652000247,0,7089,0
12.735921404000237,7713,672,0
12.739886858000318,16371,3440,0
12.743058830000336,2816,10242,0
12.746736196000256,1344,6881,0
12.749949130999994,3840,2192,0
12.754031021000173,5729,1552,0
12.75796007300005,5121,1552,0
12.760998432000179,5537,4097,0
12.764948644000015,3184,784,0
12.767988521999996,6401,4913,0
12.770996505000312,0,2912,0
12.77486968500034,14595,6913,0
12.778945059000307,19636,3328,4385
12.782008603000122,256,624,0
12.786003236999932,4929,624,4097
12.789785586000107,14771,2640,0
12.793040349999956,12547,528,2528
12.796816946000035,31479,688,0
12.801018784000007,2064,11506,0
12.804137309999987,25862,1488,4305
12.80822134500022,19428,6177,2064
12.812139364999894,9218,2288,0
12.815934474000187,6689,2320,2144
12.81908325600034,11378,4209,0
12.822219472000143,0,3824,0
12.826023093000003,8434,8434,480
12.82906698800025,1040,0,0
12.833019149999927,6433,4705,0
12.83704845300008,5793,4689,0
12.840027213000212,1792,4625,0
12.843984342000113,2816,1024,2928
12.847824987999957,5521,12130,0
12.851047375000235,12531,2096,0
12.854878134000046,1392,1328,0
12.858226287999969,3840,1360,304
12.862023098999998,176,3424,64
12.865235150999979,272,2672,0
12.869006539000111,5457,544,0
12.872074029000032,4961,5297,0
12.876174413000172,12499,2032,768
12.879997319000267,15459,17492,0
12.884080956000162,432,18436,1024
12.887213745000281,5809,1024,1024
12.891164599000149,25814,4048,0
12.895060944000306,7265,4016,0
12.898203473000194,16628,2304,0
12.9022460340002,31607,4721,4433
12.905909626000266,656,5089,0
12.909867951000251,11378,1232,11522
12.913165113000105,37433,2816,6401
12.917180496000128,14083,8866,0
12.921054300999913,8129,1040,0
12.924180721000084,1760,2288,0
12.928083775000232,4369,2400,0
12.93096346700031,4513,2144,0
12.935098193000158,176,1024,0
12.938206000000264,14995,6481,0
12.942015227999946,4593,2960,0
12.945184865000101,0,7345,0
12.94899532799991,8177,10146,0
12.952179989000342,8530,2480,0
12.956029318000219,11010,14627,0
12.959965385000032,15923,1280,2480
12.963163868000265,0,4305,0
12.96610823600031,0,7969,0
12.969995905999895,10450,2032,0
12.973950856000101,7905,1440,0
12.977084969000316,10530,11954,4209
12.980943769000078,4785,9554,0
12.984828995000044,0,3504,17460
12.988793415000146,22789,9458,7009
12.99186806500029,880,1440,0
12.995856688999993,15123,2480,3584
12.999012696000136,17428,6689,0
13.002952488000119,1664,2528,176
13.006886012999985,13011,6353,640
13.010777927000163,9746,1536,0
13.013832514000114,4609,5697,0
13.017748596000274,5265,6401,288
13.020786539000255,1472,3408,880
13.024732589999985,1824,2720,0
13.028806097000142,11282,5745,0
13.031911344000036,7937,1792,0
13.035852937000072,3824,3520,0
13.038882755000031,13891,1344,0
13.042965761000232,0,2304,0
13.045880203000252,784,6689,9938
13.049893025000074,17076,1792,4657
13.053936158999932,208,1200,0
13.05688334000024,10850,1200,0
13.060949360999984,6161,2288,0
13.0639669090001,1248,4113,0
13.067957306000153,7969,2880,0
13.07100693600023,0,7153,0
13.074828668999999,6305,432,0
13.077969538000161,5633,8033,0
13.081788896000035,8338,2608,0
13.084989674000099,8658,5681,0
13.088860021000073,23333,25062,0
13.092231800000263,2400,1024,0
13.096062535000328,14307,5249,1360
13.099949597999966,20837,20709,0
13.103935771000124,672,1936,11026
13.107820528000047,38457,10818,2576
13.111035236000134,0,1328,0
13.114996173000236,14067,1792,0
13.1182160809999,6129,6705,0
13.122007895000024,3088,2992,0
13.125031383000078,0,4545,0
13.128927242999907,5633,5329,0
13.132195457000307,7921,2864,0
13.136069858000155,2352,2864,0
13.139191253000263,7537,592,0
13.142937127000096,768,1536,0
13.14605514799996,2656,3328,0
13.149893495000015,1456,1600,0
13.153074260000267,768,1120,0
13.156932529000187,8450,1472,0
13.160088488999918,6081,6945,2304
13.164078761999917,3456,13795,0
13.167249199000253,2304,0,320
13.17100611800015,800,4193,0
13.174049560000185,256,2832,0
13.178145848999975,11282,11506,0
13.181919161000224,11826,3408,0
13.184952368000268,7153,9874,80
13.188926382000318,0,10994,992
13.194558905000122,7009,8498,16099
13.195953599999939,560,8177,384
13.199834089999968,6561,8882,0
13.203794485000344,5889,2304,832
13.206920414000251,1456,12082,0
13.210869538000225,28630,17924,0
13.214074350999908,48,768,0
13.217793976999928,0,11106,560
13.22084605300006,0,3840,8402
13.224793344000318,12579,14691,6881
13.22866229400006,2304,4753,0
13.231712798999979,2576,688,0
13.235703317000116,12499,0,1120
13.239624394000202,5441,2608,1200
13.242677435000132,5409,512,0
13.245696422000037,0,2544,0
13.249717429000157,9042,8450,1712
13.253674385000068,2640,10674,2368
13.257621364999977,12707,1056,0
13.26067178500034,9586,1520,0
13.264709932000187,1488,11986,0
13.268670247000045,3920,1248,8562
13.271691157000078,336,704,0
13.275675331000002,13795,1568,0
13.278696679999939,11234,2064,0
13.282658232999893,2832,1040,816
13.286636034999901,768,9570,2384
13.289658342000166,11922,32,0
13.293614228000024,8033,2528,0
13.296681129000262,1456,3408,0
13.299721469999895,0,5073,0
13.303717455999958,10706,14451,4593
13.307643458000257,8033,5409,0
13.31190266800013,0,6913,2784
13.314879856000061,9218,2816,6673
13.31895675900023,15699,15491,3952
13.322633662000044,2864,2592,704
13.326647654000226,9666,8962,3296
13.329972608999924,0,23813,0
13.33401377600012,10594,1120,5569
13.337080839999999,0,2080,0
13.340752820000034,9474,1792,496
13.344963755000208,688,5937,1440
13.348868224999933,1792,1600,7473
13.351910589,4881,1536,7425
13.355923175000044,12915,1280,0
13.358934761,5889,736,0
13.36281937700005,0,6449,0
13.365921634000188,0,5409,0
13.369815466000091,8482,4113,3840
13.373952000999907,1744,2048,1280
13.377019493000262,1536,5297,768
13.380932496000241,4353,768,0
13.383945665000283,3232,6513,0
13.387978212000235,0,1888,2320
13.391055607999988,6449,1552,0
13.39513267800021,176,5825,160
13.398943174000124,13523,12226,1840
13.401997346999906,2864,7825,0
13.406035890000112,2848,3088,0
13.409095045999948,0,7665,0
13.413065245000325,7169,656,10274
13.417089280000255,3840,12451,0
13.420005288000084,96,5409,0
13.423944036000194,10242,4048,0
13.427014093000253,304,4097,0
13.430973325000195,7441,3216,4097
13.434253354000248,38377,1280,0
13.437995208000302,6449,2016,0
13.441966211999897,11538,4817,0
13.445203351000146,12659,1600,0
13.448978099000215,1056,1792,0
13.45308065800009,6673,8930,2272
13.456255945000066,3344,9218,4016
13.459900779000236,4865,3328,0
13.46316022100018,16,1200,304
13.467029234000165,3328,3072,0
13.470901953000066,8546,1792,0
13.474145945000146,4897,2096,0
13.477959473000283,7921,2816,0
13.48094096900013,2864,1216,0
13.484959668000101,5025,352,6241
13.488217041000098,608,624,0
13.492011979999916,10882,960,4705
13.495966769999995,20821,976,0
13.499125825000192,10322,1936,8145
13.503107007999915,8113,2992,18020
13.507152158000281,12483,5329,0
13.510988394999913,17108,2336,6833
13.514855561000331,816,3280,3040
13.518908236000243,36824,12627,4817
13.522252277000007,16131,13827,3984
13.52629136700034,36280,1296,21253
13.53008821000003,58878,47211,720
13.533951849000005,2256,432,0
13.537200637000296,9442,4449,0
13.541074671999922,10242,7889,1168
13.544896866000272,6833,400,0
13.547941533000085,1696,7377,0
13.551967620000141,11762,2032,1136
13.555881525000132,1024,9554,0
13.558995631000016,15075,1040,0
13.562916257000325,4865,832,384
13.56598079000014,928,512,2672
13.569961248000254,7281,3520,3376
13.573836144000325,64,272,0
13.57683428900009,2768,5473,0
13.580759602999933,80,10274,0
13.583794086000125,2336,5809,0
13.587703980000242,4881,6353,0
13.590726386999904,4161,14083,1792
13.595001061999938,16948,2576,0
13.598916487000224,13203,1376,4401
13.602846196999963,5377,8129,5537
13.605936077000024,0,15315,8978
13.609973183999955,11746,5665,5889
13.612908987000083,0,912,0
13.616943962000278,10226,1376,3424
13.620974741000282,1520,8530,0
13.62489772500021,16003,4321,448
13.627978504000112,4577,2816,5889
13.631905153999924,13859,11570,0
13.635999123000147,7377,8610,0
13.63981736300002,18020,9842,5137
13.642906211000081,1216,4257,6689
13.646871978000036,7361,6401,5553
13.651042122000035,15987,4625,0
13.654924198000117,13587,2960,912
13.658250654000312,29911,8706,1840
13.66221677500016,6913,21253,10306
13.665998359000241,16916,4257,0
13.66994060900015,14579,1376,0
13.673122539999895,2192,1232,256
13.67702826599998,2144,5393,0
13.680839442999968,16644,1328,0
13.684082929999931,12547,8434,0
13.68724320199999,0,5137,0
13.691218572000253,29351,5361,1872
13.694977588000256,9810,0,2864
13.699095775999922,7745,1120,2304
13.702959963000012,10978,2208,2384
13.706141414000285,5297,688,0
13.709895682000024,0,3904,12963
13.713072906999969,976,4048,0
13.716971685000317,336,800,2720
13.720915043000332,11874,5809,4865
13.723942259000069,7169,6193,304
13.72809783599996,4865,1744,0
13.732089627000278,976,4080,13331
13.735001983000075,10322,576,0
13.739102714000182,1072,10546,0
13.742089236000083,9522,1712,0
13.746015004000128,13843,8450,96
13.749939195000024,7025,3728,3872
13.753085701000145,4705,1504,0
13.757102307999958,1616,10674,0
13.760824229000264,17028,1072,0
13.76416407600027,5841,1984,4097
13.768030830000043,7121,11442,512
13.771989517000293,9218,3408,7937
13.776042023000173,4705,6769,0
13.779190724000273,10226,2528,0
13.78299671600007,6689,560,2464
13.786110337000082,2592,2304,0
13.78994523900019,12803,5809,0
13.793945841000095,5457,12851,0
13.796972388000086,12034,9826,0
13.800087213000097,0,752,0
13.804168390000086,13235,6881,0
13.808080905000224,0,6449,1696
13.811200811000163,11154,13923,0
13.815136446999986,19876,18228,0
13.819071160000021,0,6833,13539
13.822103259999949,5825,6161,656
13.826063240000167,0,9170,0
13.829242363000048,6145,7729,1136
13.832841736000319,7953,11986,0
13.83694649500012,7409,1792,5681
13.84003480299998,10514,3424,0
13.843951802999982,1616,2288,0
13.847876091000217,19252,1584,0
13.850957249000203,672,1520,0
13.854894541000249,4865,3664,0
13.858028430000104,23317,1616,352
13.861965720000171,18196,5377,0
13.865876882000066,4385,2912,0
13.86897585099996,5169,1376,0
13.872889944000235,3744,10098,3264
13.87677114500002,35992,3184,1632
13.879793996999979,3840,2128,0
13.883733316999951,0,5777,0
13.886711197000295,0,5505,0
13.890700414000094,12515,2608,1120
13.893735839000328,7025,4833,0
13.897987270000158,6641,6641,1776
13.901007688999925,0,8161,0
13.904979853999976,4689,5569,0
13.908945254000173,7985,1712,0
13.911920882000231,1584,2208,0
13.915872390000004,3792,1696,0
13.918893923000269,15843,4048,0
13.92288283500011,3952,3824,0
13.925943117000315,2976,2192,0
13.929680613000073,2256,3616,480
13.933944888000042,21333,14867,480
13.936969933,9490,9506,0
13.941023752000092,12771,3744,2128
