time,emg1,emg2,emg3
0.004729643000246142,6993,0,0
0.007719451999946614,0,0,0
0.011683988000186218,5537,2496,0
0.014699943000323401,3072,2496,0
0.018653861000075267,1104,4849,0
0.02170910199993159,2480,1696,0
0.025675288000002183,13075,2400,0
0.028649421999944025,560,832,0
0.032689433000086865,3952,3072,0
0.03667367500020191,1952,1488,0
0.039666502000272885,1328,3008,0
0.043989585999952396,3696,1648,0
0.04663388200015106,3920,1792,0
0.05061679500022365,1904,1184,0
0.05367039400016438,6705,1392,0
0.05764117400030955,3328,1360,0
0.06067057200016279,1072,1792,0
0.06464696800003367,1072,2560,0
0.06764342900032716,1248,2208,0
0.07162524200020925,8450,6033,0
0.07468448600002375,8450,1232,0
0.07867288800025563,4849,4113,0
0.08172218300023815,768,3232,0
0.08562149600038538,2016,4977,0
0.09069930700024997,2064,2816,0
0.09265807900010259,3744,2400,0
0.09685407699998905,3232,1872,0
0.09986498700027369,48,1792,0
0.10304269100015517,4689,1856,0
0.10705619600003047,8626,2928,0
0.11092839200000526,3248,2192,0
0.11367464000022665,7425,2816,0
0.11787580400005027,1568,1440,0
0.12092247100008535,48,2304,0
0.12482993599996917,2272,1056,0
0.12792549300002065,3152,2960,0
0.13183542000024318,1776,2288,0
0.13487776500005566,3504,2544,0
0.13788025700023354,0,1840,0
0.14185156100029417,3920,5041,0
0.14479564700013725,6433,2512,0
0.14871338400007517,2912,2928,0
0.15268625800035807,2096,3088,0
0.15574489700020422,3408,2240,0
0.1587694670001838,0,1648,0
0.16273350100027528,1280,6353,0
0.16576026500024454,7457,2656,0
0.16970560300023863,272,4785,0
0.17278907300033097,5329,1616,0
0.17674275000035777,3616,5121,0
0.17980391500032056,384,1760,0
0.18374579500004984,7425,6801,0
0.18765561800000796,1456,2640,0
0.19068513900037942,5345,2656,0
0.1946441620002588,7665,2896,0
0.1976647609999418,0,2320,0
0.20071572200004084,0,2224,0
0.20463514100038083,4145,1584,0
0.2076562219999687,1280,1568,0
0.21162568299996565,4881,2608,0
0.21487769200030016,6689,2208,0
0.21859519899999214,976,2096,0
0.22186455100018065,2000,1392,0
0.22590489899994282,5393,2896,0
0.2287040149999484,1024,2416,0
0.23296030900019105,6193,1040,0
0.23593170300000565,6977,1744,0
0.23994809000032546,1040,5889,0
0.2428736720003144,3328,2320,0
0.2468415170001208,7265,2976,0
0.25077013400004944,2144,2288,0
0.2538594010002271,6913,2928,0
0.2569052600001669,16,1440,0
0.26083624400007466,0,4929,0
0.2639255270000831,4673,1584,0
0.26789386400014337,1520,1600,0
0.27097896200029936,4177,1232,0
0.27490492400011135,8338,1696,0
0.27795258300011483,1056,1632,0
0.28178832599996895,0,5889,0
0.28490067600023394,4064,1456,0
0.28876180399993245,1024,1904,0
0.29190368700028557,7185,3328,0
0.2958088029999999,7569,3360,0
0.2990813840001465,464,1792,0
0.3026898880002591,880,1232,0
0.30570703500006857,5009,3888,0
0.3096667240001807,1488,2384,0
0.3126876159999483,3584,1792,0
0.3168086640002912,4016,2256,0
0.3199722740000652,0,1488,0
0.32394233300010455,4993,1536,0
0.32695735200013587,7425,2128,0
0.3308754590002536,2336,3152,0
0.3339235110001937,8482,2640,0
0.3378541209999639,0,1056,0
0.34085575000017343,2112,3168,0
0.34484867500032124,5857,1280,0
0.3479099450000831,768,1472,0
0.35182602000031693,5777,2736,0
0.3548401470002318,7793,3360,0
0.35789329800036285,0,1952,0
0.3618215690003126,368,4257,0
0.36484787800009144,9570,2672,0
0.3689176510001744,0,4577,0
0.3718912070003171,3840,768,0
0.3759620480000194,4721,2272,0
0.37894413499998336,832,2160,0
0.3829221790001611,2384,3296,0
0.3861060480003289,6401,2432,0
0.3898161280003478,2304,2400,0
0.3929362700000638,5473,2160,0
0.3969436750003297,2848,2736,0
0.4000558030002139,256,1968,0
0.404073660999984,5297,2240,0
0.4071378300000106,1792,2096,0
0.41096388999994815,3120,2144,0
0.414118912000049,9394,3824,0
0.41807873300012943,2064,4000,0
0.42102231400031087,0,1728,0
0.42497067200019956,5121,1776,0
0.42797206900013407,0,1856,0
0.4317492980003408,3792,2160,0
0.43500281200022073,6193,1776,0
0.4388223740002104,992,1776,0
0.4419366990000526,2048,3184,0
0.44587838999996166,5377,2816,0
0.4491070460003357,2080,2112,0
0.45302632500033724,3984,1648,0
0.4559670480002751,4321,1312,0
0.45973057900027925,0,2768,0
0.4628166219999912,4465,2320,0
0.46697393100021145,4881,2336,0
0.46996265899997525,1744,2464,0
0.4739932730003602,5633,1888,0
0.47708239000030517,2848,480,0
0.4808394149999913,272,2032,0
0.48408927800028323,4689,2544,0
0.4879826480000702,2336,768,0
0.49089479000031133,3664,2992,0
0.494934707000084,8706,2400,0
0.4981287059999886,1184,1952,0
0.5018534220002948,208,1904,0
0.5050358990001769,7025,1952,0
0.5088503470001342,992,2304,0
0.5120259899999837,6145,2304,0
0.5160012940000342,6145,2608,0
0.5189350990003732,784,2064,0
0.5230369539999629,1936,3440,0
0.5260173609999583,4689,2720,0
0.5298342979999688,2048,1024,0
0.5331207550002546,2928,1584,0
0.5369122649999554,1520,1280,0
0.5399875620000785,0,2064,0
0.543841034000252,2688,1520,0
0.5469191020001745,6449,2224,0
0.5509105030000683,4545,1888,0
0.5539919660000123,7985,2048,0
0.5579215570000997,2528,3424,0
0.5609312330002467,1200,1680,0
0.5649330790001841,3568,1296,0
0.5679069000002528,0,2704,0
0.5717724139999518,4769,1792,0
0.5748953770003027,6225,3120,0
0.5787561450001704,752,2048,0
0.5818567440001061,1600,2000,0
0.5857471630001783,5857,2048,0
0.5888721589999477,1200,1040,0
0.5927860490000967,2048,2112,0
0.5957633090001764,3376,2608,0
0.5996805290001248,0,2144,0
0.6026681130001634,1792,3440,0
0.6065933310001128,3920,2048,0
0.6096685699999398,1792,2000,0
0.6138720349999858,3072,2336,0
0.6169274779999796,2624,3088,0
0.6209408520003308,128,2336,0
0.6239212240002416,5601,1760,0
0.6279415819999485,1568,2576,0
0.6309679370001504,5009,1376,0
0.634921888000008,8418,1712,0
0.6378934050003409,1328,1280,0
0.6418419500000709,448,6241,0
0.6448858400003701,7137,1024,0
0.6488397230000373,1200,7137,0
0.6517798879999646,3840,2256,0
0.6557852600003571,6465,4833,0
0.6588857020001342,624,2128,0
0.6627717599999414,5201,4305,0
0.6669448259999626,2464,3328,0
0.669984482000018,2592,2480,0
0.6739365950002139,3632,2256,0
0.6769064510003773,2960,2272,0
0.6808023900002809,416,2672,0
0.6839775580001515,6497,2800,0
0.6878812220002146,3024,2096,0
0.6911490640000011,6913,2480,0
0.6950958320003338,8674,2128,0
0.6979355339999529,368,1392,0
0.7012016900002891,0,1424,0
0.7049869120000949,8690,3184,0
0.7080104599999686,0,1776,0
0.7119376690002355,6737,1296,0
0.7152063720000115,6641,1840,0
0.7188456300000325,0,1136,0
0.7220289950000733,448,3264,0
0.7260148200002732,7601,1968,0
0.7291096230001131,656,1584,0
0.7328517410001041,5121,1104,0
0.7361022860000048,5377,4113,0
0.7391685980001057,0,1776,0
0.7430665270003374,2864,7633,0
0.7460122510001383,8722,1840,0
0.7499749500002508,4193,3744,0
0.7538572670000576,3344,1744,0
0.7569419540000126,2816,2048,0
0.7610197510002763,768,1792,0
0.763926506000189,7425,2960,0
0.7678540010001598,2576,2400,0
0.7709985569999844,5809,2640,0
0.7750849610001751,5057,2032,0
0.7780782960003307,0,1584,0
0.7810335980002492,0,2256,0
0.784804855999937,6369,2688,0
0.7879702150003141,256,672,0
0.7918023310003264,2992,896,0
0.795160696000039,6753,2544,0
0.7988815820003765,464,1360,0
0.8019482190002236,1488,3632,0
0.8060189709999577,8626,1216,0
0.8089280270000927,0,1792,0
0.8120792360000451,3072,2656,0
0.8160917049999625,7377,5457,0
0.8199845640001513,1072,1872,0
0.8229865800003608,5137,1936,0
0.8270429660001355,20260,2560,0
0.8301123119999829,4016,2352,0
0.8338357900001938,2816,1936,0
0.8371066409999912,2880,2960,0
0.8409174810003606,528,1024,0
0.8440186390002964,4321,1328,0
0.8478440710000541,112,2304,0
0.8509795550003219,5585,2704,0
0.8549709210001311,9570,3072,0
0.858025832000294,1360,2304,0
0.8618970290003745,0,1280,0
0.8649061440000878,7041,2640,0
0.86875858600024,1104,1456,0
0.8718683510001028,8674,2816,0
0.8757430640002895,5537,2240,0
0.8788378540002668,0,2016,0
0.8827218119999998,1008,2160,0
0.8858324210000319,7505,2704,0
0.8897484050003186,2416,2064,0
0.8927138030003334,2448,1872,0
0.8966702070001702,2640,2048,0
0.8996859460003179,944,1584,0
0.9036235930002476,4161,1712,0
0.9066634499999964,4113,2704,0
0.9107579129999976,5425,2656,0
0.9138675450003575,7473,2848,0
0.9179696740002328,1776,2080,0
0.9206675680002263,400,1792,0
0.9249398219999421,3120,1936,0
0.9278870930002086,0,1024,0
0.9316691910003101,6401,1536,0
0.9346867680001196,5809,2976,0
0.9379033730001538,0,1616,0
0.9418841500000781,3328,3872,0
0.9458471400002963,6913,2048,0
0.948934353000368,3312,1776,0
0.9528403500003151,3024,3296,0
0.9556886310001573,5137,2928,0
0.9589413690000583,0,912,0
0.9628967190001276,768,3488,0
0.9658661240000583,3856,2448,0
0.9699120509999375,3856,1520,0
0.9730111410003701,4401,2592,0
0.9769249860000855,3568,6513,0
0.9798683660001188,0,0,0
0.9830026859999634,560,800,0
0.9870362970000315,3024,1024,0
0.9901548110001386,1456,1232,0
0.9940367660001357,8113,7937,0
0.9969857300002332,2352,1952,0
1.0011056110001846,2544,3888,0
1.0050350410001556,4016,1968,0
1.0080880130003607,1808,2960,0
1.0118573700001434,6945,2800,0
1.015157360000103,6257,1792,0
1.0181694540001445,0,1712,0
1.0219513960000768,1488,7089,0
1.025993951000146,6865,2304,0
1.0290618860003633,3504,3488,0
1.0328442350000842,6385,1056,0
1.0361061160001555,3856,2896,0
1.0399614370003292,464,1056,0
1.043110335000165,3168,1136,0
1.0468314469999314,4785,2416,0
1.0501231470002494,2400,2080,0
1.053916135000236,3424,2464,0
1.0569875450000836,2480,3376,0
1.0600553740000578,0,880,0
1.0639116500001364,3328,6241,0
1.0671878040002412,3152,768,0
1.070970528000089,3872,7425,0
1.0741636220000146,8145,1696,0
1.0779695589999392,3728,4353,0
1.0810230430001866,592,2256,0
1.0850055569999313,8450,2864,0
1.0881514180000522,0,1984,0
1.0918782280000414,6081,2304,0
1.0950633100001141,4721,2048,0
1.0990610830003789,864,2384,0
1.102088354999978,528,2048,0
1.105894828000146,8177,2384,0
1.1091241020003508,496,768,0
1.1129629420001947,1456,4529,0
1.1160010390003663,3840,1680,0
1.1200289830003385,256,2640,0
1.1231251190001785,1264,1616,0
1.1268656219999684,3728,1344,0
1.130042481000146,1056,1840,0
1.1340265880003244,4353,2256,0
1.1371833050002351,2816,2016,0
1.1410165560000678,0,2704,0
1.1441220040001099,2848,2704,0
1.1479066950000743,1504,2240,0
1.1509882620002827,5089,2304,0
1.1549307980003505,7825,3472,0
1.1580212000003485,1152,1792,0
1.1618471000001591,64,1872,0
1.164952656999958,3344,2304,0
1.1688317030002509,1072,1392,0
1.1718776000002435,6337,2736,0
1.1758276660002593,4849,2816,0
1.1789160220000667,384,1328,0
1.1828213690000666,1008,2304,0
1.1859137080000437,5601,944,0
1.1897340140003507,2784,3152,0
1.1927911729999323,1120,2800,0
1.1967398050001066,2960,2352,0
1.1996867180000663,0,1744,0
1.2027176930000678,992,880,0
1.2069340770003691,8097,3680,0
1.2108824599999934,5297,1792,0
1.2136446360000264,6513,2400,0
1.2176337119999516,3024,1440,0
1.2207983210000748,64,1936,0
1.2248035290003827,6225,1792,0
1.2278369959999509,2672,2192,0
1.2318285930000457,4945,2176,0
1.2348146610002004,5297,3360,0
1.2378535870002452,0,1424,0
1.2418662660002155,4865,3120,0
1.2457771849999517,6129,1952,0
1.248690703000193,4097,2608,0
1.2526849380001295,8049,3280,0
1.2559112860003552,5041,2576,0
1.2598586520002755,672,1104,0
1.2628289580002274,1360,2304,0
1.266819119000047,6737,2416,0
1.269931053000164,2208,1616,0
1.2738409220000904,3744,2240,0
1.276971838999998,1808,1968,0
1.280832269000257,752,2448,0
1.2841383039999528,5681,2064,0
1.2880510780000805,3520,1936,0
1.2910214730000007,2896,1552,0
1.2949809629999436,8738,2608,0
1.2979464790000748,560,1984,0
1.3020247940003173,16,3296,0
1.3051543480000873,4209,2480,0
1.3090015070001755,832,2464,0
1.3121161660001235,3072,3184,0
1.3160444240002107,5281,2864,0
1.3191165240000373,656,2224,0
1.323012270000163,880,1024,0
1.3260902740003075,4929,4209,0
1.3298017219999565,1968,3600,0
1.3330785410003045,2704,2336,0
1.3368791440002497,4609,2576,0
1.340132025999992,1024,1792,0
1.3439436150001711,2624,2464,0
1.3469782330003,2816,2400,0
1.3509389860000738,1616,1232,0
1.354136961000222,6913,2576,0
1.35791321600027,416,4945,0
1.3611243519999334,0,2272,0
1.3650760990003619,6097,1328,0
1.3680330700003651,592,2048,0
1.3719224820001727,4433,2096,0
1.37514890500006,7649,2608,0
1.3782227720002993,0,2048,0
1.381937685000139,2384,4401,0
1.3859762970000702,6241,1792,0
1.38911777300018,1792,1168,0
1.393015676000232,6817,2304,0
1.3962349040002664,4321,3104,0
1.399141365000105,0,3072,0
1.4030720470000233,4897,3792,0
1.406979538000087,5089,1584,0
1.4100771870002973,2816,2496,0
1.4138671260002411,1648,1280,0
1.4171204530002797,1136,2336,0
1.4201641630002086,0,1728,0
1.4240854670001681,2560,4865,0
1.4279923120002422,2480,2032,0
1.430910502000188,4289,1840,0
1.4347758700000668,10178,4353,0
1.4379456880001271,1440,2048,0
1.4411609110002246,0,2128,0
1.4450033620000795,10866,3696,0
1.448879054000372,1008,1696,0
1.4520002340000246,4849,2192,0
1.4558494040002188,5041,1776,0
1.4589588320000075,48,1776,0
1.4627461640002366,2256,2992,0
1.4659895910003797,8065,2208,0
1.4690284250000332,0,768,0
1.472840995000297,6033,1904,0
1.4760951510002087,4289,2304,0
1.4796939880002355,464,5281,0
1.4828961739999613,1280,1760,0
1.4867037560002245,3232,8498,0
1.489717732000372,2784,2800,0
1.4936499120003646,7473,4865,0
1.4975924830000622,3328,2016,0
1.5009417280002708,1392,2464,0
1.5049015690001397,1568,2144,0
1.5079673889999867,1744,2224,0
1.5117965960002948,3008,1760,0
1.5149547600003643,6977,3232,0
1.5189908790002846,944,1792,0
1.5218775860003007,1840,2144,0
1.5259339100002762,6545,2656,0
1.5289485640000748,1424,2320,0
1.5329140170001665,1760,1952,0
1.535902008999983,4048,1488,0
1.5398683810003604,112,1472,0
1.5429388120001022,3280,1312,0
1.5466405510001096,4241,2816,0
1.5499857879999581,2608,2896,0
1.5538258790002146,4369,7793,0
1.5568645540001853,2320,4321,0
1.5611105299999508,4849,4897,0
1.5650053640001715,6881,1952,0
1.5681113959999493,2144,3888,0
1.5719414440000037,6145,1536,0
1.5750353769999492,7937,2416,0
1.578241538000384,0,768,0
1.581961715000034,1024,2128,0
1.585091143000227,5649,1792,0
1.5890165230002822,0,6017,0
1.5919794910000746,4833,1904,0
1.5960254700003134,5297,2720,0
1.5989392090000365,576,1552,0
1.6029677730002732,928,1632,0
1.6060817689999567,4353,2592,0
1.6099668780002503,1648,2672,0
1.6130310970002029,2288,1504,0
1.6168504040001608,4609,3328,0
1.620135092000055,416,2384,0
1.6238885500001743,608,960,0
1.6270856579999418,3888,1808,0
1.6308955470003639,1968,2000,0
1.6341190790003566,6129,2464,0
1.637876795000011,960,1344,0
1.6409570230002828,0,2384,0
1.6441372130002492,7281,2304,0
1.6479376750003212,3392,3504,0
1.651792332000241,1648,1184,0
1.6548886370001128,8097,2896,0
1.6579705670001204,96,976,0
1.6619220810002844,720,8402,0
1.6650435510000534,5841,2752,0
1.6690502000001288,1280,4129,0
1.6720016890003535,2816,1392,0
1.676086736000343,5409,5121,0
1.679127804000018,0,1344,0
1.682882680000148,1792,2304,0
1.6861479030003466,5473,2096,0
1.6900649690001046,2848,2048,0
1.6931577780001135,4497,496,0
1.696895892000157,3664,2976,0
1.700097765999999,0,1648,0
1.7040123740002855,2128,1200,0
1.7071260010002334,2560,1712,0
1.7110411810003825,1680,2144,0
1.7140535870003077,5793,1680,0
1.7180477080000855,2192,1568,0
1.7210916230001203,320,2816,0
1.7249250120003126,3632,2848,0
1.727919768999982,304,2464,0
1.731923991000258,3328,3008,0
1.7351505579999866,6897,2128,0
1.7390100249999705,256,1472,0
1.741972153000006,0,2352,0
1.7458182840000518,5345,1632,0
1.748900543000218,2080,1504,0
1.7527648420000332,4641,2096,0
1.755865608000022,5537,2992,0
1.7589136670003427,0,2208,0
1.7628763500001696,6049,3600,0
1.7666826550002952,4497,1392,0
1.7698238030002358,1488,2048,0
1.7737366310002471,3360,2544,0
1.7768336730000556,4369,2656,0
1.780644379000023,48,1648,0
1.7836415970000417,5521,3776,0
1.7876030140000694,3664,1680,0
1.7906444509999346,3632,5361,0
1.7947764580003422,9922,3072,0
1.7978137420000166,1728,3088,0
1.800899328000014,0,2032,0
1.8048730970003817,8546,4289,0
1.8079074199999923,0,2304,0
1.811816318000183,4113,1488,0
1.8149286070001835,8482,2448,0
1.8187195059999794,1024,2528,0
1.8218134020003163,0,2816,0
1.8258780610003669,4865,2128,0
1.8287607490001392,0,2032,0
1.831815129000006,4225,976,0
1.8358664960001079,9042,5377,0
1.8388115920001837,0,1712,0
1.8428825549999601,2304,3232,0
1.8459873670003617,5633,3120,0
1.849898813999971,2016,2480,0
1.8529356590001953,2304,2512,0
1.856965957000284,3888,6769,0
1.8601210169999831,64,1760,0
1.863803848000316,256,816,0
1.8670730440003354,3584,1392,0
1.8709060070000305,1936,2016,0
1.8739720440003111,5665,2464,0
1.8780096919999778,1280,2528,0
1.8810456930000328,0,2384,0
1.8848449440001787,5777,2816,0
1.8879547070000626,1280,3024,0
1.8918600510000942,4161,1888,0
1.8951761210000768,7457,3376,0
1.8988995140002771,1056,2096,0
1.9019938599999477,0,2640,0
1.9059761160001472,6801,1360,0
1.9090386120001313,496,2784,0
1.912736958000096,4321,1040,0
1.9159845300000597,4401,2352,0
1.919134182000107,0,1280,0
1.9228583369999797,0,1840,0
1.9260789300001306,7937,1616,0
1.9298352190003243,464,2640,0
1.933087128000352,2560,832,0
1.9368306080000366,3216,1888,0
1.9400786139999582,32,2256,0
1.9431372220001322,768,848,0
1.946887916000378,3120,1792,0
1.9500011200002518,1248,1280,0
1.9538981150003565,5889,3504,0
1.9569394600002852,1280,1872,0
1.9609442840001066,3504,3360,0
1.9647207610000805,4113,1616,0
1.9678732000002128,2560,3328,0
1.9718781010001294,5841,2480,0
1.9749931790001938,7521,2304,0
1.9789449710001463,80,1840,0
1.9819503270000496,320,2816,0
1.9859477320001133,6577,2192,0
1.9890916260001177,2816,2816,0
1.9930253400002584,4945,2288,0
1.9961181930002567,5377,3184,0
1.9998384360001182,608,1040,0
2.0030888390001564,1936,1584,0
2.006858600000214,3760,2224,0
2.010134164000192,2496,2512,0
2.014017810000041,3104,1840,0
2.0171270180003376,2720,2992,0
2.020977435000077,0,1824,0
2.024014814000111,4193,0,0
2.0269245920003414,6577,2304,0
2.0309106150002663,3056,1120,0
2.0341509950003456,6001,2992,0
2.0380751510001573,2544,5457,0
2.0411174260002554,0,2576,0
2.0449385700003404,4785,2352,0
2.0478967950002698,800,1360,0
2.0518043209999632,5425,1440,0
2.054901639000036,7345,2160,0
2.0587740820001272,1552,2256,0
2.0618099230000553,0,3392,0
2.0656758730001457,8161,928,0
2.068824978000066,2768,2976,0
2.0727419960003317,7873,1328,0
2.0757231420002427,3808,2816,0
2.079625015000147,656,1136,0
2.0826500269999997,2816,2432,0
2.0866155910002817,4881,1952,0
2.0896263910003654,2144,2048,0
2.0938762509999833,3872,1552,0
2.0968504770003165,1872,2560,0
2.100856023000233,256,2848,0
2.103905839000163,6913,2816,0
2.1078714690002016,400,2304,0
2.1109184599999935,3840,1200,0
2.1149108260001412,7377,2368,0
2.117900125000233,1216,2384,0
2.1217816680000396,0,6241,0
2.124897334000252,6273,1968,0
2.1279048640003566,0,2032,0
2.131803291000324,4609,5313,0
2.135841432000234,7153,2816,0
2.1388506860002963,3328,3600,0
2.1418327330002285,688,2304,0
2.1459255899999334,7873,4881,0
2.149771122999937,1024,2160,0
2.153040060999956,5889,2800,0
2.1568660249999994,5233,3152,0
2.160048112000368,0,2384,0
2.1629580220001117,4801,1808,0
2.167044401000112,9010,4016,0
2.170812276000106,2816,2112,0
2.174086856000031,6657,2736,0
2.177863747000174,4241,2272,0
2.181072600000334,64,2080,0
2.1849896690000605,4289,2224,0
2.1880782270000054,5713,3424,0
2.1918534050000744,5553,2416,0
2.1949575870003173,7521,2816,0
2.198023325000122,0,2736,0
2.201856209000198,0,6769,0
2.2050190620002468,8962,1808,0
2.208015191999948,0,2384,0
2.211928428000192,6241,2096,0
2.2158937090002837,5697,1936,0
2.2190088110000943,1728,1792,0
2.2229405319999387,1120,2784,0
2.226039910000054,6241,1648,0
2.2289430030000403,0,2064,0
2.23301557700006,4064,4625,0
2.236097565000364,4353,2912,0
2.2400199339999745,1616,4016,0
2.2437501110002813,2704,3216,0
2.246843438000269,7633,3024,0
2.250810650999938,2048,1584,0
2.2540586260001874,3408,1904,0
2.257956017000197,1536,2560,0
2.260837645000265,0,2816,0
2.2650241830001505,7169,3456,0
2.2680804700003137,3152,3360,0
2.271827644000041,4145,2992,0
2.275046882999959,7169,3696,0
2.2780023550003534,0,2240,0
2.2819046120002895,0,5377,0
2.2849884960000963,8450,2384,0
2.2888143190002666,0,3472,0
2.2919612040000175,7425,3360,0
2.2960040140001183,5441,2048,0
2.299023631000182,896,2112,0
2.301999705000071,720,3024,0
2.3060373000002983,9234,2464,0
2.3090451590001067,256,1536,0
2.313105559000178,8370,5569,0
2.3168374520000725,3952,1792,0
2.3200599290003083,1280,2624,0
2.323145174000274,0,2304,0
2.3268888640000114,4289,1872,0
2.3299108109999906,784,2048,0
2.3340430910002397,4625,1376,0
2.3371660030002204,1824,1360,0
2.340793201999986,0,5297,0
2.343821783000294,3584,1792,0
2.3477270790003786,4241,2288,0
2.3508631480003714,3328,1360,0
2.354691711000214,10770,3616,0
2.357754933000251,1264,1824,0
2.3616641300000083,3920,4289,0
2.3655846700003167,5921,2080,0
2.368628494999939,2048,3632,0
2.3725825960000293,4945,2656,0
2.3758157590000337,4657,2976,0
2.3788545400002477,0,1392,0
2.382831324000108,288,8274,0
2.3859495120000247,5297,1888,0
2.3898888240000815,2016,5473,0
2.3929297120002957,2608,2064,0
2.396967240000322,6065,4673,0
2.399883931000204,0,1584,0
2.4037554520000413,1024,2112,0
2.4068088779999925,3664,1952,0
2.4108751890003077,3584,2784,0
2.413890012000138,6433,3088,0
2.4178512080002292,5089,4145,0
2.4209506360002706,0,2128,0
2.424875460000294,6705,416,0
2.4278449860003093,2848,2144,0
2.4318160410002747,5425,1360,0
2.434882421000111,7697,2512,0
2.4388031270000283,2224,2816,0
2.4417506080003477,0,3040,0
2.4457700830002977,5313,1184,0
2.448839844000304,1072,2096,0
2.4528362650003146,5297,1488,0
2.4559810250002556,3744,2160,0
2.459830443000101,256,1856,0
2.4629176940002253,0,2304,0
2.4680184530002407,5857,2768,0
2.4697851760001868,3168,3152,0
2.4738205789999483,2816,4000,0
2.476920158000212,2560,1360,0
2.4799518090003403,0,1952,0
2.48386388300014,2304,7217,0
2.4877868370003853,3072,2320,0
2.4908628739999585,5633,2928,0
2.4947889540003416,5793,2848,0
2.497904947000279,3424,6993,0
2.5016699210000297,144,2320,0
2.5047868120000203,5585,3392,0
2.508685080000305,2064,1712,0
2.511697433000336,4577,2816,0
2.5156543279999823,5377,2608,0
2.5186553810003716,768,2368,0
2.5225424390000626,240,2448,0
2.5256030220002685,5137,2208,0
2.5295575570003166,432,1360,0
2.5326035640000555,3056,2576,0
2.536580425000011,4881,2528,0
2.5395889720002742,0,2160,0
2.542598096000347,272,1312,0
2.546538055000383,3200,7761,0
2.5496699680002166,2048,2304,0
2.5536476649999713,2816,4401,0
2.557623849000265,1904,3520,0
2.56065210900033,2960,3408,0
2.564650023000013,5473,1280,0
2.567675080000299,2224,2160,0
2.571639301000232,4641,1760,0
2.574650493000263,7937,2304,0
2.577687547000096,0,1584,0
2.5816516790000605,3168,3952,0
2.585557205999976,4913,2912,0
2.5900394720001714,2608,1648,0
2.5925775720002093,3520,2096,0
2.5956460440002047,6721,2816,0
2.5998280769999838,608,1280,0
2.602997899999991,304,2400,0
2.60697559800019,4321,2992,0
2.609917448000033,2336,2160,0
2.613867357000345,3504,2144,0
2.61683277200018,6257,4129,0
2.6198820600002364,0,2288,0
2.6238054479999846,6417,2160,0
2.627617807000206,1936,2304,0
2.63065153000025,1024,2272,0
2.6345693680000295,7217,2368,0
2.6375855940000292,1280,2080,0
2.6417337940001744,384,1872,0
2.64460052000004,5681,2224,0
2.648583847000282,256,1632,0
2.6517149999999674,6433,1952,0
2.65592216999994,4801,3120,0
2.658650389000286,112,1360,0
2.661657323000327,0,2832,0
2.665905547999955,4545,7329,0
2.668802412000332,0,1584,0
2.6726557110000613,4305,2544,0
2.675939980000294,3984,2736,0
2.6798754300002656,96,1952,0
2.6829349570002705,736,2528,0
2.686670508000134,8546,3952,0
2.6899580460003563,1328,1312,0
2.6938265050002883,4080,2016,0
2.6968962850000935,2960,1936,0
2.7007691290000366,0,2176,0
2.703985795000335,2912,3104,0
2.7077304310000727,4849,2576,0
2.711025241000243,3360,1792,0
2.7149135950003256,7025,2224,0
2.7180086630000915,1280,2400,0
2.721186243000375,0,1840,0
2.725009742000111,9058,4865,0
2.7280870859999595,0,1664,0
2.731876771000316,5073,112,0
2.735078910000084,7857,3120,0
2.738996932000191,928,2656,0
2.7421062210000855,0,2912,0
2.7458935829999973,6609,1408,0
2.748954968000362,720,2416,0
2.752819929999987,5649,1360,0
2.7560645430003206,4961,1968,0
2.75986459700016,1040,2128,0
2.762961658000222,1792,1568,0
2.7668212050002694,4481,2544,0
2.7701194430001124,2160,1840,0
2.7738816529999895,3840,1184,0
2.7769564440000067,3536,2864,0
2.7808376980001412,0,1600,0
2.7838886210001874,3536,3088,0
2.787977709000188,2832,1632,0
2.7909566230000564,3312,2464,0
2.7949290360002124,8306,2736,0
2.7979406650001692,976,1744,0
2.8018729110003733,832,4048,0
2.8050185140000394,5073,2320,0
2.8088354980000076,752,2064,0
2.8119111430000885,2208,2048,0
2.815899826000077,6705,2816,0
2.8189876159999585,1120,2784,0
2.822194287000002,0,3072,0
2.826050170000144,6913,3056,0
2.829269718999967,0,1632,0
2.8330225090003296,5041,1776,0
2.8361442509999506,4529,2320,0
2.8398343349999777,0,400,0
2.8428114790003747,3152,2848,0
2.847024853000221,4817,1808,0
2.849974260000181,1120,2912,0
2.8538774759999797,2016,2048,0
2.856967543000337,4705,2992,0
2.860852783000155,704,2720,0
2.8640075700000125,4097,2096,0
2.8678337500000453,3424,1808,0
2.870978137000293,2464,2928,0
2.874943682000321,10690,2224,0
2.8781322280001405,1520,2848,0
2.8819326490001913,3600,3840,0
2.8859608600000684,4353,1280,0
2.8889549460000126,1024,2480,0
2.8927873239999826,6769,2608,0
2.8959724710002774,6145,2272,0
2.899760229000094,256,1440,0
2.9029297850001967,1184,2736,0
2.906828653000048,5121,2048,0
2.909908101000383,1712,1200,0
2.9138124730002346,3072,2752,0
2.9168179570001485,2912,2448,0
2.9207702930002597,0,1040,0
2.923886851000134,2576,3600,0
2.9277306410003803,3840,2656,0
2.930683553000108,4721,2640,0
2.9346125060001214,7665,4129,0
2.9377006439999604,1072,1792,0
2.9418060250000053,688,3840,0
2.944951109000158,5025,1792,0
2.948650703000112,1280,1968,0
2.9516267440003503,5089,2640,0
2.955895764000161,7057,2816,0
2.9589262170002257,560,2704,0
2.962789814000189,0,3072,0
2.9658766780003134,6145,2064,0
2.968630867000229,0,768,0
2.972845279000012,5601,2032,0
2.975883798000268,4273,1984,0
2.9797692900001493,0,6689,0
2.9826752110002417,1600,2608,0
2.986661631000061,4545,1904,0
2.9899274580002384,0,2336,0
2.9938619470003687,3888,2208,0
2.9968694540002616,6065,4577,0
3.0001409100000274,512,1376,0
3.0040779160003694,3664,3760,0
3.0078089980002005,4977,2016,0
3.0109646720002274,2224,2048,0
3.015038800000184,7665,2080,0
3.0179785140003332,1648,2032,0
3.021115655000358,0,3504,0
3.024949473000106,7729,5025,0
3.028124487000241,368,1488,0
3.0319484760002524,4561,4705,0
3.0358253940003124,8418,1712,0
3.0390682160000324,3024,3568,0
3.04190908999999,0,2304,0
3.0460041549999914,2944,1712,0
3.048887172000377,1920,2048,0
3.05303803400011,7265,4833,0
3.0560193999999683,5953,2304,0
3.0600547829999414,2720,2992,0
3.0637692600002993,2048,2784,0
3.0669082260001232,896,1744,0
3.070875473000342,4753,2512,0
3.073932423000315,6353,1968,0
3.0778513200002635,3792,3184,0
3.0809003130002566,656,1552,0
3.084759112000029,2720,2864,0
3.0879492590001973,5345,3072,0
3.091894988000149,4417,1520,0
3.0951491770001667,8450,2576,0
3.0989864380003382,848,2768,0
3.1019937519999985,0,1136,0
3.105060255000353,4817,1440,0
3.108940559000075,2928,3456,0
3.1127579950002655,5201,3520,0
3.1159030630001325,7089,4048,0
3.119864303000213,1232,1520,0
3.123084711000047,1600,2304,0
3.1267733250001584,4497,2352,0
3.129934478999985,2480,1616,0
3.1340283030003775,2048,2048,0
3.1369415040003332,4305,2528,0
3.140956372000346,0,1280,0
3.144077758000094,4497,3760,0
3.1480080610003824,3088,2672,0
3.1509024890001456,512,1200,0
3.1548954980003145,5377,2048,0
3.1578981570000906,3168,2800,0
3.161874664000152,96,2464,0
3.165027279000242,9682,3040,0
3.1687778830000752,1280,3040,0
3.1719338709999647,4737,2048,0
3.1758559600002627,6977,2816,0
3.1789862570003606,1024,2816,0
3.1830044890002682,1264,2656,0
3.1859183930000654,6401,2048,0
3.1898730430002615,784,2640,0
3.192931845000203,5089,1856,0
3.1968124520003585,3120,3776,0
3.199910982000347,432,1472,0
3.2038089480001872,1040,2576,0
3.206935532999978,4225,1936,0
3.210857244000181,4097,2080,0
3.213949700000285,2784,1472,0
3.217870273000244,5169,8049,0
3.2207571620001545,0,1616,0
3.2246777990003466,4913,1888,0
3.2277355330002138,3168,2848,0
3.2316560610001943,3168,2768,0
3.2347440060002555,9666,4016,0
3.2388683070003026,1072,1632,0
3.2418604270001197,512,1200,0
3.2456451360003484,3376,768,0
3.2486567890000515,672,2640,0
3.2525955569999496,6689,3344,0
3.2557786669999587,8049,3072,0
3.259874337000383,0,1488,0
3.2628622810002526,2720,3840,0
3.2667657460001465,3840,2128,0
3.269912618000035,2112,2192,0
3.2737905339999998,2816,2080,0
3.276818538000043,3552,2272,0
3.2807636659999844,0,1168,0
3.2837709870000253,2816,2864,0
3.287772208000206,3840,2320,0
3.2910210790000747,3648,2096,0
3.294798337999964,5841,976,0
3.2979715139999826,2896,3200,0
3.3011257480002314,0,2464,0
3.3049589520001064,3264,6705,0
3.30810693300009,720,2688,0
3.311927241000376,3552,5937,0
3.3150128060001407,6497,2480,0
3.3190324330003023,5041,4161,0
3.3220348230001946,0,2080,0
3.3260182980002355,4209,1056,0
3.3292598380003255,912,2160,0
3.332893439000145,5361,976,0
3.3361021780001465,5809,2608,0
3.3398785960002897,1024,1696,0
3.3429861050003638,3120,2960,0
3.3468733510003403,4641,1536,0
3.350117273000251,720,1632,0
3.3538355870000487,3376,736,0
3.357116108000355,3872,2000,0
3.360835333000068,0,2784,0
3.3639342999999826,2704,1792,0
3.3678489710000576,5905,2272,0
3.370934380000108,1008,2048,0
3.374834908000139,7889,3328,0
3.3779560760003733,3664,3120,0
3.3818067270003667,720,2912,0
3.385022815999946,5969,2160,0
3.388883420000184,544,2512,0
3.392041825999968,6129,2624,0
3.39600425000026,6625,3152,0
3.3990655410002546,672,1552,0
3.4020924790002027,0,3280,0
3.4060669049999888,6993,2320,0
3.4091426340000908,512,2336,0
3.4128342410003825,6545,4945,0
3.416948596000111,5089,2832,0
3.4200420990000566,1792,2048,0
3.4239830380001877,2320,1872,0
3.42708526000024,4080,2608,0
3.430856146000224,1072,1584,0
3.4341043620001983,2096,2800,0
3.43779604700012,1968,2320,0
3.440945327999998,0,2672,0
3.4449049580002793,3952,2080,0
3.448056249000274,3248,1952,0
3.452116238000144,5313,2048,0
3.454972492000252,8450,3536,0
3.458788335999998,400,2096,0
3.4622092540002996,256,1632,0
3.4659780030001457,5041,2080,0
3.469046269000046,496,1792,0
3.472994457000368,4689,1552,0
3.476081696000165,6289,2832,0
3.47889756900031,0,2304,0
3.483068388999982,4977,4881,0
3.486711636000109,2576,1872,0
3.48980863900033,3936,3536,0
3.493771996000305,3360,3328,0
3.496803344,5345,2304,0
3.500652874000025,496,2160,0
3.5038376980000976,1808,3136,0
3.5077677540002696,3328,2304,0
3.5108390980003605,1312,864,0
3.514763368000331,5393,2816,0
3.5177340640002512,3344,3616,0
3.5216185290000794,528,3168,0
3.5246634330001143,6353,2304,0
3.52855294300025,864,2544,0
3.5317356170003222,5601,2288,0
3.535863191000317,6897,3296,0
3.5387971400000424,624,2240,0
3.541785180000261,0,1280,0
3.5458788509999977,5137,7729,0
3.5489099540000097,768,2816,0
3.552797510000346,5297,7425,0
3.5558669500001088,2864,2832,0
3.5597557340001913,4145,4609,0
3.5637406280002324,2480,1968,0
3.5667628250002963,7057,3136,0
3.570703431000311,1376,1184,0
3.573781598000096,3888,2304,0
3.5778241180000805,3328,2752,0
3.580877270000201,672,1824,0
3.584889215000203,2928,1696,0
3.5878294930002994,3328,2816,0
3.592010889999983,2736,2384,0
3.5951214280003114,8914,2272,0
3.5988480460000574,1840,2592,0
3.6018911500000286,192,2064,0
3.605994407000253,4577,1792,0
3.608951609000087,800,2368,0
3.6127734390001933,7793,3616,0
3.616042290000223,4545,3024,0
3.619808368000122,16,1696,0
3.6230619620000653,688,2816,0
3.626968190000298,3408,2720,0
3.6298918960001174,736,1472,0
3.633946428999934,3680,2192,0
3.637047571000039,2400,2208,0
3.6400134810000964,0,1776,0
3.6440739760000724,4865,3248,0
3.647775518000344,5889,2144,0
3.6509128249999776,3824,2816,0
3.6548354300002757,5361,1776,0
3.657864113999949,3632,3072,0
3.660958092000328,0,3120,0
3.6649292730003253,2864,7025,0
3.668005440000343,928,2592,0
3.671937966000314,2720,6769,0
3.6749945440001284,8546,2528,0
3.679053952000231,5121,3888,0
3.6819637920002606,0,2304,0
3.6860153950001404,4945,2304,0
3.6889194140003383,256,1248,0
3.6929918360001466,5073,2928,0
3.6960564330001944,4945,2592,0
3.7000120310003695,464,1056,0
3.7030550250001397,992,1312,0
3.7069942940001965,4897,1568,0
3.709953895000126,1024,1760,0
3.713865604000148,5857,2368,0
3.7171224730000176,3072,2304,0
3.721058582000296,672,6433,0
3.7241066340002362,2960,2960,0
3.72789022500001,1792,8818,0
3.7311109430002034,2160,2528,0
3.7349238360002346,8674,4865,0
3.7388239910001175,1200,2352,0
3.7419592650003324,2560,2816,0
3.7458006970000497,5873,1104,0
3.7489129840000714,544,1952,0
3.752948275000108,5857,2224,0
3.7560645670000667,7425,2464,0
3.7589760129999377,0,1360,0
3.762842973000261,0,5681,0
3.765904495000086,5377,2464,0
3.769155793000209,0,1392,0
3.7730295810001735,5377,4064,0
3.7767980670000725,4064,2976,0
3.7800612149999324,1536,3088,0
3.783774010000343,1312,1472,0
3.786844719000328,5569,2736,0
3.790772097000172,1696,1616,0
3.793844855000316,3184,1968,0
3.797784718999992,2656,2912,0
3.800837251000303,0,2064,0
3.804718026000046,3840,2064,0
3.807846081000207,4593,2928,0
3.811630721000256,5809,1856,0
3.8147365500003616,8930,3136,0
3.818647064000288,1824,3184,0
3.8216289590000088,480,1776,0
3.8255984530001115,5377,1584,0
3.8288788029999523,432,2720,0
3.832607432000259,8434,2336,0
3.835795438000332,4881,1968,0
3.8398855310001636,432,2048,0
3.842839567000283,1536,2128,0
3.846610320000309,5297,2048,0
3.8496400410003844,976,1520,0
3.8537455990003764,1232,2272,0
3.856787973000337,4353,3312,0
3.8608079220002764,1504,3008,0
3.8639169780003613,2448,2048,0
3.867796704000284,2048,2704,0
3.8709391170000345,4177,1040,0
3.874741892000202,8450,6401,0
3.8786796960002903,1536,2912,0
3.881912917000136,2816,3824,0
3.8858422820003398,6145,2448,0
3.888953409000351,512,2720,0
3.8929188350002732,3024,2240,0
3.8959199040000385,7249,3936,0
3.899101385999984,0,2464,0
3.903021756000271,704,9634,0
3.9059312300000784,7793,1808,0
3.9099741459999677,1488,8866,0
3.9130487120000907,2000,1296,0
3.9170045790001495,4145,4721,0
3.9201038100000005,0,1680,0
3.9237879920001433,3424,928,0
3.9269274220000625,2864,3840,0
3.930988403000356,2144,3760,0
3.9339657529999386,1168,1728,0
3.937908186000186,3376,2944,0
3.9408941340002457,768,2240,0
3.9448180950003007,2624,3056,0
3.947968265000327,1616,1568,0
3.9519570980000935,3216,3024,0
3.955020140000215,6961,3600,0
3.958859195000059,5521,4513,0
3.9624210639999546,0,2144,0
3.9658401910000975,4048,2576,0
3.968955147000088,784,2048,0
3.972836468999958,3168,2512,0
3.9759851329999947,6049,3376,0
3.979723937000017,0,1936,0
3.98288299800015,1296,3408,0
3.9869705500000236,7953,2320,0
3.990040331000273,1136,2608,0
3.9938615930000196,4961,1872,0
3.9970782380000855,2352,2128,0
4.000853060000281,864,3504,0
4.003869949000091,1552,1584,0
4.0080078330001925,3888,2528,0
4.011104504000286,1760,1792,0
4.015048460000344,7729,2672,0
4.018096033000347,1312,3248,0
4.0218739770002685,0,5985,0
4.0249416720002955,5713,1680,0
4.028742881000198,304,2096,0
4.031964980000339,4097,2816,0
4.035937837000347,7441,3328,0
4.0390257730000485,992,1328,0
4.041997539000022,0,1744,0
4.045780818000367,8450,6113,0
4.048942800000077,176,1280,0
4.052808813999945,6305,3168,0
4.056838963000246,4545,3664,0
4.059888780000165,3072,2560,0
4.0638143159999345,1936,2128,0
4.066945078000117,5585,3168,0
4.070815938000123,816,1584,0
4.07393016900005,5345,2816,0
4.077778076999948,3488,1936,0
4.080807929000002,816,2192,0
4.084749462000218,4865,1328,0
4.087860075000208,5841,1744,0
4.091773583000304,5329,2672,0
4.0949057560001165,7905,1536,0
4.098791237000114,1744,3296,0
4.101893294000092,560,2864,0
4.105786549000186,6193,3168,0
4.108710663000238,624,1024,0
4.112629501000356,6065,2304,0
4.115691572000287,5473,2992,0
4.119584768000095,880,2224,0
4.122686648000126,704,2304,0
4.126647364000291,6097,1392,0
4.129896233000181,1440,1536,0
4.133778216000337,3472,2304,0
4.136779208000007,4080,3472,0
4.140772355000081,0,2560,0
4.143735917999948,3184,2464,0
4.147747542000161,3952,2096,0
4.1508001780002814,1392,2256,0
4.1547797719999835,5169,2256,0
4.157649366999976,1376,1440,0
4.161579047000032,256,3072,0
4.164733520000027,3280,2384,0
4.168798627000342,848,2496,0
4.171701313000085,4577,2768,0
4.1758332690001225,8033,3936,0
4.17881705300033,864,1248,0
4.182884320000085,224,3328,0
4.185863315000006,7313,1280,0
4.189836546000151,304,2032,0
4.193044603000089,5585,2320,0
4.196923247000086,6065,3424,0
4.199933469000371,528,2048,0
4.203938664000361,688,1200,0
4.2070574550002675,6913,2048,0
4.210689670000193,288,848,0
4.214022924000346,4465,3056,0
4.217941616000189,4321,2560,0
4.220847400000366,208,2192,0
4.224763015000008,4865,5777,0
4.227919477000341,5233,1600,0
4.231901646000097,3072,2416,0
4.2350092500000756,10002,4353,0
4.23890703699999,1280,1792,0
4.241957398000068,672,2256,0
4.245865329000026,5201,1232,0
4.248974633000216,704,1888,0
4.252884208000069,4625,2560,0
4.255961233000107,5649,2304,0
4.259850694000306,624,2592,0
4.262894374000098,0,3280,0
4.266829907000101,6561,1792,0
4.269911899000363,1920,1744,0
4.273831825000343,3488,2816,0
4.27707466100037,4769,4353,0
4.280786576000082,0,3488,0
4.284041459000036,8850,5457,0
4.287963590000345,4353,2256,0
4.290844005000054,1440,1504,0
4.294774729999972,3792,2640,0
4.297884818000057,2656,3328,0
4.301932715000021,512,2560,0
4.30495750900036,4113,1520,0
4.308851830000094,944,2016,0
4.311986398000045,4929,1984,0
4.315838020000228,8594,4080,0
4.318952005000028,288,2464,0
4.322966245000316,288,2304,0
4.326078863000021,6033,2864,0
4.329876011000124,512,2928,0
4.333060039999964,7217,2336,0
4.3369688729999325,6001,1968,0
4.3397745669999495,0,1792,0
4.343081121000068,4881,2800,0
4.346837679000146,9474,4545,0
4.350724423999964,1328,2144,0
4.354028393000135,6273,2896,0
4.357795177000298,3600,2528,0
4.36088402400037,784,2512,0
4.364726017000066,4353,1808,0
4.367843040000025,5121,3328,0
4.371780749000209,5329,2816,0
4.374880251000377,6001,1568,0
4.378714702000252,2064,2160,0
4.381832117000158,0,1968,0
4.385709487999975,5793,1024,0
4.388824715000283,1376,3168,0
4.392740827000125,6417,2048,0
4.395866448000106,5745,2096,0
4.399792051000077,320,1424,0
4.402754824000112,1648,3088,0
4.406643830000121,7409,2016,0
4.409721579000234,1264,1584,0
4.413638474999971,3632,688,0
4.416914243000065,4113,2352,0
4.420861650000006,752,2976,0
4.423900356000104,864,1760,0
4.4277892100003555,5169,1600,0
4.4308463870002015,2544,1952,0
4.434881552000206,5489,3296,0
4.437825784000324,3568,2848,0
4.44172160700009,0,2816,0
4.445025256000008,6449,2416,0
4.4487980400003835,4129,1280,0
4.452058279000084,4961,2400,0
4.45581228500032,7313,2240,0
4.458892965000359,1696,3312,0
4.462761282999963,1120,1760,0
4.465965693000271,5921,1456,0
4.470003920000181,160,2608,0
4.473102158000074,4257,2800,0
4.476886734000345,5313,2800,0
4.479920981000305,0,1792,0
4.483761940000022,1456,2064,0
4.486923060000208,4785,3088,0
4.4909595920003085,1952,3024,0
4.493991406000077,2928,2096,0
4.497804558000098,1824,1984,0
4.5009250410003006,240,1936,0
4.504845192000175,912,2144,0
4.507966357999976,6209,2928,0
4.511819312000171,2208,2512,0
4.514968081999996,9330,3504,0
4.518979742000283,1792,2080,0
4.52208487200005,1104,2160,0
4.525892948000092,3744,1440,0
4.5288768740001615,1136,1776,0
4.533032597000329,5889,5905,0
4.536009060000197,6161,2848,0
4.53999856900009,2720,3632,0
4.5438677229999485,1376,1552,0
4.546832389999963,8914,3264,0
4.550941055000294,1488,2304,0
4.5540657619999365,3072,2160,0
4.557801757000107,5361,3472,0
4.56092175699996,0,2608,0
4.563977385000271,2816,880,0
4.567960574000153,6497,4513,0
4.571722915000009,1952,1168,0
4.5749026510002295,6945,3312,0
4.578744639999968,1280,2160,0
4.581897698000375,1296,1680,0
4.5858142600000065,6401,1712,0
4.588934505999987,240,2304,0
4.592963024000255,5521,2784,0
4.595903792000172,6961,2448,0
4.598922235000373,0,1680,0
4.603011456000331,3168,2000,0
4.606932917999984,6817,1584,0
4.610058806000325,2080,1792,0
4.613815524000074,4209,2928,0
4.617057388000376,3424,2736,0
4.620743698000297,432,816,0
4.624047731000246,3904,2448,0
4.627804171000207,4129,1200,0
4.631034767000074,3328,2704,0
4.634838331000083,3328,2320,0
4.638038189000326,2352,2528,0
4.641978338000172,544,2640,0
4.64493905900008,7937,2608,0
4.648963171000105,1040,1568,0
4.652086213000075,2992,992,0
4.6559734110001045,9042,3632,0
4.658919674000117,1232,2592,0
4.662086153000018,0,3232,0
4.665832323000359,8161,4305,0
4.668902777000312,944,2352,0
4.672847813000317,6305,3984,0
4.676685816000372,5921,3040,0
4.679828644000281,1168,1968,0
4.6836792230001265,928,2304,0
4.6868269780002265,8978,2480,0
4.690728499000215,928,2032,0
4.693864641000346,4465,2560,0
4.69765052799994,3072,2096,0
4.700741448000372,1232,2256,0
4.704664249999951,1792,1824,0
4.707676969000204,5025,1904,0
4.7115719960002025,1616,1888,0
4.71481106300007,8946,3328,0
4.7185668229999465,1952,2640,0
4.721843069999977,0,2048,0
4.725793292000162,5169,1696,0
4.728579351999997,400,2928,0
4.732813403000364,3600,720,0
4.7358285440000145,5377,2048,0
4.739798461000191,816,1072,0
4.742859707000207,2096,3648,0
4.74683172899995,5409,1632,0
4.749863562999963,288,2112,0
4.753836368000066,7249,1808,0
4.7566819450003095,4401,2464,0
4.75987851500031,0,1792,0
4.763853009000286,2608,8033,0
4.766804714000045,4833,1856,0
4.770850813000379,5041,4433,0
4.774698848000298,4529,1792,0
4.7777722250002626,4177,2528,0
4.780836706000173,0,1744,0
4.784950698000102,4257,8370,0
4.787966796000092,4353,2096,0
4.791884369999934,3056,5889,0
4.7949473680000665,7697,3120,0
4.799616872000115,3184,3232,0
4.802210470000318,0,2608,0
4.805831631000274,4145,2304,0
4.808895859000131,1616,2240,0
4.81284930000038,7217,7777,0
4.81591556300009,5121,2512,0
4.819853178000358,4929,4353,0
4.822896821000086,0,2976,0
4.826789450999968,6481,1120,0
4.829864513000302,0,1648,0
4.833698001000357,2096,2544,0
4.836752178000097,4833,4113,0
4.8397223710003345,0,2528,0
4.843655102999946,2064,4849,0
4.846686167000371,3632,3408,0
4.85063985800025,2960,2672,0
4.854570120000062,4561,1664,0
4.857646993000344,4337,2048,0
4.86161864099995,816,1776,0
4.864634819000003,5233,3280,0
4.868615260000297,2816,1584,0
4.871593658000165,2656,2736,0
4.875605313000051,9330,2816,0
4.878567063999981,48,2128,0
4.882565215000341,160,2528,0
4.885621504000028,7441,3024,0
4.888629748000312,0,1280,0
4.892608393000046,6385,3376,0
4.895608978000382,6849,3120,0
4.8995987490002335,1200,5425,0
4.902649178000047,528,1968,0
4.906599071000073,6193,6705,0
4.909638161000203,0,2528,0
4.913538685000276,2976,2048,0
4.916724740000063,4497,1504,0
4.9204943660001845,352,2336,0
4.923552058000041,1952,1664,0
4.927613874000144,3808,1616,0
4.930842593000307,1040,1168,0
4.934808848000102,5089,1040,0
4.937872341000002,2768,3168,0
4.941855006999958,0,6721,0
4.944561605000217,4913,1456,0
4.948876126999949,3408,1184,0
4.951822339000046,2336,976,0
4.955892605000372,9522,3840,0
4.958552392000001,928,1216,0
4.962601909000114,896,3072,0
4.965591287000279,5985,1120,0
4.96863852100023,0,2016,0
4.972579896000298,7217,4064,0
4.976530108000134,5393,2816,0
4.979581192000296,1424,2128,0
4.982563651999953,0,2848,0
4.986562079000123,3664,8802,0
4.989579664000303,704,944,0
4.993547374000173,2656,928,0
4.996755996000047,3552,1312,0
5.000706741000158,0,3056,0
5.0037631879999935,5457,3136,0
5.007721988999947,5153,1680,0
5.010807448000378,2288,2176,0
5.014723615000094,1392,848,0
5.017799845000354,3296,3296,0
5.021723107000071,784,2048,0
5.024784653000097,5233,2224,0
5.028740237999955,3104,3072,0
5.031776838000042,2960,1648,0
5.035877563000213,10242,5121,0
5.038845331000175,1296,1232,0
5.042754874000366,0,1424,0
5.045792431000336,7937,2864,0
5.049694866000209,752,1728,0
5.052785232000133,4016,1888,0
5.056693582000207,5473,2896,0
5.059769259999939,32,2592,0
5.062848134999967,464,3792,0
5.066828818999966,12515,4497,0
5.069894558000215,0,1936,0
5.073911282000154,5217,1952,0
5.076867857000252,4577,2496,0
5.080994971000109,4609,4145,0
5.084729836999941,1280,2304,0
5.088019353000163,7057,3696,0
5.091837706000206,2336,1824,0
5.0950250539999615,7329,2928,0
5.098925732000225,1200,3088,0
5.101898789000188,784,2192,0
5.105793705999986,4849,3328,0
5.108881514000132,720,1264,0
5.112948251000034,3728,1296,0
5.115913823000028,9218,3584,0
5.119740773000103,16,1872,0
5.1229879740003526,3056,3792,0
5.126894398000331,6177,1952,0
5.130022322000059,112,2032,0
5.1338985490001505,7393,1872,0
5.1367922510003154,4865,2816,0
5.140071853000336,0,1536,0
5.143801765000262,1568,7585,0
5.146843970000191,3440,2272,0
5.1508165370000825,3904,3344,0
5.154674608000278,2448,1184,0
5.157796530000269,3776,3840,0
5.161679158999959,544,1136,0
5.164820251000037,8434,4016,0
5.168714020000152,2256,2080,0
5.171892775000288,6433,1504,0
5.175727193000057,9298,2096,0
5.178766201000144,1088,2848,0
5.181880812000145,0,2304,0
5.185749732000204,8097,2560,0
5.188848320000034,880,2048,0
5.192771636000089,7201,4449,0
5.196591101000195,6145,2576,0
5.199641422000241,2560,2496,0
5.203588552000383,1968,1888,0
5.206617701000141,5441,3088,0
5.210607650000384,1520,2192,0
5.213567531000081,4385,1824,0
5.217518853000001,3536,2256,0
5.220538577000298,0,736,0
5.223603866000303,3952,2816,0
5.227571497000099,7937,3872,0
5.2316794040002605,5697,2336,0
5.234583398000268,6033,2368,0
5.23854818000018,3664,768,0
5.241563540000243,1792,3232,0
5.245531492000282,4945,2096,0
5.248581925000053,800,2592,0
5.252781079000215,5505,800,0
5.2558736630003295,11266,4609,0
5.259612185000151,1440,800,0
5.262906910000311,2576,2304,0
5.26685137000004,2928,1840,0
5.269819883000309,3040,1344,0
5.273694352000348,3120,2864,0
5.276892999000211,7937,2816,0
5.280765942000016,5761,1760,0
5.283801911999944,1232,1984,0
5.287838710999949,8978,2416,0
5.29091078700003,5425,1856,0
5.294831253000211,12066,6657,0
5.29879051800026,13475,1968,0
5.301906939000219,10242,1280,0
5.305936779000149,0,1968,0
5.30904268400036,2272,2128,0
5.312840631000199,17300,864,0
5.315956670000105,25302,3136,0
5.32000497800027,14419,736,0
5.32297528800018,4641,2224,0
5.326790199000243,0,1696,0
5.329894744000285,2080,1792,0
5.333862941999996,3632,2720,0
5.336965038000017,18612,2672,0
5.3410210930001085,5361,1904,0
5.3439253820001795,5121,1888,0
5.348063714000091,49436,6145,0
5.351857310000014,65535,10802,4945
5.355963302999953,10354,3792,0
5.358949611000298,36104,2624,0
5.3628841210002065,50956,2048,0
5.365937750000285,37017,2320,0
5.370038230000318,32103,3472,0
5.3738149770001655,10994,1440,0
5.377089768000133,7937,2768,0
5.380841799000336,33048,2816,0
5.383976044000065,37225,2048,0
5.388027900999987,5809,2240,0
5.391884484999991,12210,2624,0
5.3948974830000225,7441,2688,0
5.3989857599999596,22901,4177,0
5.402803816999949,33528,3056,5841
5.406119191000016,25158,3216,224
5.4100090609999825,10866,5297,0
5.413764260000335,13987,2016,0
5.417064957000093,1168,2576,0
5.420856280999942,7249,1424,80
5.424088455999936,11490,3840,0
5.427848825000183,7425,4545,0
5.431744201000129,3264,1968,0
5.434837440000138,0,2336,0
5.437941417000275,7425,2192,0
5.441764919999969,0,4897,0
5.444820551000248,6145,2144,0
5.44876960900001,2080,1888,0
5.451968616000158,2864,976,0
5.455994477000331,19204,1792,0
5.458975026000189,1200,1280,0
5.4628824660003374,3344,2704,0
5.466770244000145,17940,2000,0
5.469905057000233,6353,3936,0
5.473920498000098,2336,1808,0
5.476933989000372,25382,3760,0
5.480849350999961,9522,1024,0
5.484057443999973,56269,1792,0
5.488018752000244,15315,2064,0
5.491753226000128,4097,1312,0
5.494847151000158,39161,4865,0
5.498821152000346,43930,3600,0
5.501899408000099,34520,2832,0
5.505804980999983,25830,4337,0
5.509744527000294,1904,3328,0
5.512860852000358,40729,3504,0
5.516783710000254,38041,1536,0
5.5199183110003105,12467,5553,0
5.52383066900029,29783,5921,0
5.527713466000023,32247,1792,0
5.530762386000333,47243,1280,0
5.534676507000313,33192,1600,0
5.538593262000177,64031,2640,0
5.541661666999971,46811,4417,0
5.545854538000185,27574,2512,0
5.548792358000355,2976,1024,0
5.552888046000135,25414,624,0
5.555869097000141,65535,1872,0
5.559902179000346,65535,14547,4753
5.563866857999983,65535,3840,0
5.567774537000332,6705,848,0
5.570782459000384,21765,2992,0
5.574841302000095,4016,2880,0
5.577862428000117,2304,2048,0
5.581734855000377,24565,2304,0
5.585816526000144,30999,1376,2304
5.589701867000258,25958,2032,3648
5.592903678000312,39481,4353,0
5.596909079999932,7425,13571,3600
5.600818421999975,38265,2048,11698
5.604876068000067,5681,1680,0
5.608071028000268,13059,3056,0
5.610990372000288,0,2000,0
5.615095343000121,8962,3856,0
5.618887657999949,8113,2880,0
5.621872862000146,11634,2768,0
5.625950611999997,6241,1680,0
5.628879992000293,7217,2976,0
5.632966647000103,752,1840,0
5.636051985999984,6913,2336,0
5.639985846999934,3600,1840,0
5.642965725000067,3440,1280,0
5.646924586000296,36360,3824,1168
5.650832338000328,7729,3216,800
5.654790437999964,5537,10242,0
5.657828213000357,2560,7665,0
5.6617382819999875,15539,2464,0
5.6650028610001755,15363,1680,0
5.668807673000174,7425,2816,0
5.671960729000148,5313,2304,0
5.675799542000277,8898,8850,0
5.678906625000309,560,1376,0
5.68303459200024,5265,8962,3264
5.686758415999975,5121,1584,0
5.6900721500001055,1024,1472,0
5.693893138000021,14611,288,3024
5.697883712000021,9778,3328,0
5.701074360000348,1808,10994,0
5.704838499000289,8818,1280,9218
5.708759367000312,17828,2640,0
5.711955611000121,1136,1616,0
5.716031910000311,33016,1392,256
5.719802343000083,15619,1056,80
5.7237747829999535,10482,4433,1024
5.726987118000125,27718,3888,1248
5.73083985600033,0,6097,0
5.734078535000208,16243,4449,0
5.737894251999933,17652,5089,0
5.741926846000297,7345,1216,1840
5.7457646490001935,7137,2800,1456
5.748904984000092,4273,6193,0
5.752961474000131,7025,1568,0
5.756066761000056,10130,2352,0
5.760000339000271,7329,5041,0
5.7629997250001,0,3840,0
5.76688018699997,5201,1904,0
5.7699986360003095,10082,4305,0
5.773799371000223,20693,5121,2192
5.77774913300027,2672,1408,0
5.781021610000153,3040,2880,0
5.784960617000252,2192,1536,0
5.788044916000217,6273,3408,0
5.791776561000006,0,11458,0
5.794895161000113,224,5377,4785
5.7987751820000994,1616,11442,0
5.802688885999942,13475,5377,0
5.805876647000332,12034,2496,5393
5.809841146000053,7457,5601,4945
5.813810687000114,18628,5009,4977
5.817726649000178,0,9682,2240
5.82170797300023,42874,8786,6625
5.824805329000355,1584,2224,0
5.828671653000129,13619,18308,0
5.8326015130001,26230,9106,2864
5.835621775000163,16740,8418,0
5.839832162000221,5041,3024,2832
5.843832793000274,14595,5585,2832
5.847724065999955,15731,11762,0
5.8507614940003805,768,7601,0
5.854803521000122,848,1920,0
5.857796244000383,48,1744,0
5.860747368000375,0,2368,0
5.864743364000333,912,2960,0
5.867751961000067,3296,3360,0
5.871756312000343,5377,2352,0
5.874796503000198,20789,1664,0
5.878802368000379,5281,848,0
5.881708367000101,224,1648,0
5.885785536000185,15539,6465,0
5.888870088000203,23525,784,0
5.892856759000097,176,6737,848
5.8967368220000935,14163,16900,0
5.899982137000279,7809,1696,0
5.903937092999968,2304,992,0
5.906894903000193,14115,1424,0
5.910835631000282,13011,3600,7921
5.914944326000295,34792,3248,5825
5.918714252999962,2832,4705,0
5.922646526000335,7505,9010,19412
5.925826287000291,48027,9394,5393
5.9297359580000375,0,5137,0
5.932809641999938,5537,1472,0
5.936750719999964,22277,2480,0
5.940109600000142,10450,2992,0
5.943889652000053,0,4385,0
5.947088931000053,8690,1264,560
5.950850533999983,4993,3328,0
5.9548447669999405,8770,6049,496
5.957938741000362,4209,2304,0
5.961700022000059,0,20260,0
5.96495155599996,1584,848,0
5.967964557999949,208,3424,0
5.972059425000225,9426,2144,0
5.975823452999975,16035,1392,0
5.978848782000114,0,14979,0
5.982824015000006,11602,2672,2400
5.986107419000291,8994,3840,0
5.990033871000378,80,4977,1072
5.99386071500021,12034,992,4945
5.997920383000292,4865,5041,5809
6.00090361599996,1456,7009,0
6.005025279000165,2720,4753,0
6.008072606000042,7905,3568,0
6.011776195000039,4625,5601,0
6.015093758000148,0,2816,6193
6.019023171000299,3408,816,11314
6.023031932000322,8161,18596,1888
6.026788156000293,1424,4161,0
6.03001554299999,3536,2912,0
6.033908086000338,688,11618,0
6.036920379000094,3184,1040,0
6.040873462000036,768,2304,0
6.043931488999988,5889,6353,0
6.047890960000132,10258,1232,1296
6.051778329000172,2080,2784,0
6.0549352660000295,7249,5553,0
6.057899965000161,0,976,0
6.061752145000355,0,1104,0
6.064918878000299,5889,1200,0
6.068826474000161,10866,1280,0
6.071941568000057,256,1600,0
6.075855084000068,8418,2928,0
6.078939710000213,1808,288,256
6.082842277000054,560,7089,0
6.0860584810002365,5681,7201,0
6.0898424090000844,11570,1520,0
6.093785039000068,5681,10802,3408
6.096909336999943,1280,15043,0
6.100835651000125,256,2240,2272
6.104772517000129,14899,16644,0
6.107925236000028,10354,5713,0
6.111745383000198,3328,7937,0
6.115776119000202,2608,8113,4449
6.119801175000248,12307,12499,17668
6.122734557000058,0,1296,0
6.126635761000216,3232,12082,1440
6.12971565900034,736,1360,0
6.1336421460000565,1456,6897,0
6.137727172000268,3200,6673,0
6.140887178999947,4273,4048,0
6.144846325000344,3408,1168,672
6.14784885600011,5377,2528,0
6.151766489000238,4449,3616,0
6.154891848000261,6737,160,0
6.1585954520001,3072,2128,0
6.161840876000042,6881,720,0
6.165836624000349,4865,944,0
6.168629172000237,7457,864,0
6.172640623000007,20324,1632,0
6.176728246000039,5073,6833,3696
6.179885365000246,768,1776,784
6.183846739000273,11010,1456,0
6.187755204000041,1184,15123,6561
6.190983828000299,9490,4449,0
6.194786079000096,13507,3840,0
6.198817827000312,18692,6833,0
6.201977493999948,2448,11266,976
6.205996963999951,12451,2096,0
6.209818679000364,6689,768,2592
6.212849174999974,22965,3360,0
6.216873792000115,14851,704,4097
6.220990598000299,32439,3440,3552
6.2248956940002245,19620,2352,3216
6.227856693000376,2272,8177,0
6.231780420000177,11234,5809,0
6.2357737060001455,18340,1024,1280
6.238882500000273,976,4705,0
6.242793952000284,4353,368,0
6.245789949000027,0,976,0
6.248866921000172,560,1520,0
6.252881427000375,5585,6673,608
6.256837612000254,22277,4913,0
6.259924410000167,3888,1648,48
6.263773739000044,4273,352,0
6.266880791999938,432,1024,0
6.27078678900034,7985,3840,0
6.273943234999933,7057,13059,0
6.277810521999982,2816,6305,0
6.280966293000347,3328,3760,0
6.284948286000144,3040,3840,0
6.288784834000126,2592,1728,0
6.291890974000125,5793,2304,0
6.295899739000106,1440,416,0
6.298874224999963,208,6177,0
6.301954097000362,6705,1632,0
6.3060149540001476,22645,1776,0
6.309772124000119,3808,1760,0
6.312913743000081,5441,3936,0
6.316871816000003,15619,9874,4145
6.320799747000365,592,1664,7953
6.3238855510003305,13075,3568,0
6.327789184000267,288,8882,0
6.3310880140002155,2960,1280,0
6.334941645000072,14659,6385,0
6.337915087000056,0,10002,0
6.341899961000308,0,3904,2128
6.345906180000384,13347,1952,0
6.348989738,5345,1456,0
6.352939549999974,7809,1712,0
6.3560521170002175,8978,1024,0
6.359844693000014,6289,3296,0
6.362904693000019,400,1440,0
6.366850242000055,11602,1760,0
6.370086274000187,6593,2256,0
6.373976082000354,5313,5377,0
6.376999316000365,10002,1104,0
6.380978828000025,4945,1424,0
6.384687928999938,3360,1360,0
6.38782301800029,21141,3536,0
6.3917405700003656,8770,1792,0
6.394799669000349,4657,2912,0
6.398770896000315,5873,960,224
6.401794481000252,0,8402,0
6.405708376000348,3440,4897,0
6.408822003000296,0,1168,3088
6.412760032000278,3184,1472,3872
6.416634714000338,16371,4593,432
6.419711816000017,3952,4000,0
6.423620758000197,6273,0,1120
6.4266327479999745,2032,1584,0
6.430803499000376,0,6033,0
6.433820271000059,12595,8818,0
6.4377456189999975,9746,2304,13587
6.440850492000209,0,8434,0
6.4448152140003,3600,11426,608
6.448492326000178,416,5377,192
6.451784568000221,6817,2320,0
6.455868176999957,16131,5489,6369
6.459578518999933,7121,16,0
6.462758832999953,0,5281,0
6.466730284000278,10626,6481,6497
6.470859550000114,9330,112,2304
6.473838961000183,1504,4353,0
6.477593945000081,5617,2064,0
6.480916612000328,864,1552,1488
6.48483836000014,4465,1200,0
6.48786698899994,4193,1856,0
6.4918169900001885,768,4929,0
6.4948460410000735,3696,1200,0
6.498934587000349,2304,1280,0
6.501818270000058,0,4449,0
6.505817460000344,16355,4177,0
6.508860416000061,6961,2128,0
6.513019414000155,6689,1712,8129
6.5169250900003135,14627,224,0
6.52004306400022,25046,2128,0
6.523937997000303,1200,2672,0
6.527663009000207,592,4817,1840
6.530903262000265,13347,6513,1232
6.535059435000221,5217,5057,48
6.538938252000207,16564,10866,0
6.541906626000127,2512,3104,0
6.54581351700017,12563,3248,0
6.549896279000222,10370,1280,0
6.552985906000231,304,3920,0
6.556882519000283,15843,1792,0
6.559890051000366,1008,1312,0
6.563951296000141,4529,11522,0
6.567845002000013,1712,1264,1056
6.570974358000058,96,1024,0
6.574039964000349,272,1248,0
6.577757135999946,1376,1648,0
6.581023975000335,3200,1952,0
6.585032468999998,496,3696,80
6.587930355000026,3088,1008,0
6.591874140000073,1536,2992,0
6.595955839999988,1760,4641,7985
6.59908150199999,11682,752,0
6.602866444000028,18276,5905,0
6.6069022020001285,464,960,1120
6.609915228000318,3008,4721,0
6.614018364000003,11634,2816,5905
6.616971165999985,720,3872,0
6.621024084000055,7281,1600,0
6.624045982000098,528,704,0
6.627953971000352,18612,10066,0
6.631775252000352,272,1536,0
6.634899799000323,6833,3504,0
6.638076782000098,0,2320,0
6.64193586500005,17252,9906,12963
6.646014209999976,9490,816,2592
6.649871649000033,3760,8177,0
6.6528948899999705,9186,3376,0
6.656832272999964,15219,2752,0
6.659873019000315,0,1280,0
6.662912611000138,0,384,0
6.666810074000296,9074,1120,0
6.669910161000189,0,1568,0
6.673826314000053,5297,1024,928
6.676985850000165,9266,3488,880
6.6808618150002985,3136,3856,0
6.683849549000115,0,1440,0
6.68774340400023,6801,464,0
6.690846383000007,12835,4977,0
6.694734243000312,160,2544,0
6.698652202000176,9538,6241,1728
6.702018384999974,2272,1520,0
6.705678256000283,368,2816,0
6.70880128600038,1856,3632,0
6.712626785000339,13139,1024,0
6.715688232000048,14339,3280,0
6.719601506000345,4593,2032,336
6.723590721000164,10242,3248,2528
6.726743378000265,3072,1200,0
6.730791578000208,4257,3376,0
6.734791041000335,8274,11234,0
6.737736877000316,4561,9266,0
6.7417035860003125,22309,10162,0
6.744826164000187,0,5217,0
6.74860559400031,2928,2000,0
6.7515871740001785,6689,7441,0
6.755696654000076,1328,848,5521
6.758714827999938,1536,1040,0
6.762848644000314,1600,3056,0
6.765892238000106,4000,432,0
6.769870368000284,0,6145,1024
6.7737155390000225,5169,2064,0
6.776770770999974,5921,2304,0
6.7800647260000915,5889,784,0
6.784006739000233,3424,3296,0
6.787813455000105,12194,1072,0
6.790881414000069,7665,368,0
6.794717424000282,8049,768,64
6.797894815000291,3872,688,0
6.801716277000196,768,4849,0
6.8050607690001925,1808,1872,0
6.8089545860002545,6833,2304,1792
6.812808929000312,2544,7057,12146
6.815854929000125,5521,2816,0
6.819957075000275,6305,5201,0
6.823902335000184,2496,11522,624
6.826889934000064,1280,3136,1024
6.830982539000161,0,4529,2976
6.834792287000255,9554,4977,256
6.838838639000187,11522,1024,8626
6.841909639000278,6913,2496,0
6.845906525000373,9586,1632,0
6.848993176000022,1696,1904,0
6.85295453200024,9346,4865,0
6.856058290999954,10466,4977,0
6.859812050000073,2512,480,0
6.863015682999958,0,1168,0
6.865999140999975,0,592,0
6.869788324000183,2544,976,0
6.872954035000021,7473,1792,1024
6.876814470000227,7889,6449,1440
6.880750839000029,0,1104,0
6.8838883749999695,1280,7953,0
6.887855644999945,3040,3344,2720
6.891827977000048,16,2112,3232
6.8949145280002995,22885,12611,0
6.898852077000356,10402,1552,0
6.901919572000224,256,10098,0
6.905990437000128,25046,1264,0
6.909074661999966,4705,688,0
6.912830872000086,9634,4865,0
6.916783987000144,23973,8466,0
6.92007833300022,4577,1984,3552
6.92383904899998,2816,15251,800
6.927767941000184,9138,2384,0
6.931045305000225,2496,6721,0
6.934961113000099,6465,2208,0
6.938905959000294,12194,5377,3088
6.9418854190003,32,1792,0
6.94509779100008,864,3536,0
6.948842644000251,4721,3328,0
6.952865279999969,8930,2816,48
6.956029339999986,15171,8866,0
6.959801981000055,1648,1648,0
6.9630591069999355,272,4849,0
6.96695483800022,9778,368,0
6.969852340000216,864,3840,0
6.973916909000309,6513,1328,0
6.976885592000144,15923,3040,0
6.980805338000209,4145,4833,4369
6.984721757999978,5025,2672,0
6.98786264499995,8097,6913,0
6.991791456000101,160,7425,3920
6.995783025000037,11890,2336,704
6.998861105000287,9458,3936,0
7.002763233000223,19236,6321,0
7.005846964000284,22261,5537,0
7.009674426999936,9266,14291,6961
7.013629424000101,22261,18660,10466
7.017600012999992,11746,5697,0
7.0206240410002465,336,3616,0
7.024805460000152,7825,5201,0
7.027686936999999,800,816,0
7.031813760000205,9778,7169,0
7.035772592000285,1712,14835,0
7.038585702000091,944,1424,0
7.041716805000306,0,2080,0
7.045808282000053,8258,3792,0
7.048624932000166,4369,1712,0
7.052845098000034,3280,784,0
7.056831658000192,11442,4113,304
7.059873240000343,6049,8546,0
7.062899690999984,0,3408,0
7.066875027000151,12771,3696,6433
7.070723294000345,15699,0,0
7.0738610309999785,10418,5457,0
7.077728925999963,768,5457,0
7.0809093279999615,176,1280,0
7.083972593999988,0,9042,0
7.087802551000095,0,7665,0
7.090858388000015,10610,1136,0
7.094818893000138,2816,3072,0
7.098949861000165,10338,3152,1472
7.1019794230001025,0,7409,0
7.105860440000015,3840,2304,0
7.108897594000155,8306,16852,0
7.112969609000174,17300,1952,0
7.115966755000045,16131,2032,0
7.119787277000341,0,4753,0
7.123029902000326,304,1104,0
7.126877073000287,23477,3728,0
7.1297831490001045,3328,864,0
7.133742122000058,7585,288,0
7.13702553100029,1184,4721,0
7.140926216000025,2192,1408,0
7.144134568000027,2144,768,0
7.147971258000325,10274,768,6097
7.151876591000018,816,14371,0
7.15499588800003,3152,5889,0
7.1587998869999865,6417,3968,0
7.1618397740003275,0,1280,0
7.164949869000338,4145,1536,0
7.1689186590001555,7825,4833,0
7.171890719000203,0,1040,0
7.175978164000298,8386,2816,0
7.179906236000079,8514,2656,2208
7.183034595000208,16051,1968,0
7.186742397000216,2912,4369,0
7.189837376000014,784,1808,0
7.193723714000043,3040,7025,1376
7.1976806330003456,2816,9138,0
7.200838091000151,10994,5281,0
7.204735349000202,3504,624,0
7.207836439999937,4529,7825,0
7.211017435000031,0,928,0
7.215068957000312,11474,3776,1264
7.218960107000385,16596,1104,0
7.221983145000195,9394,3152,0
7.225948413999959,11970,6145,0
7.229909419000251,25830,4337,0
7.23302691400022,3456,11554,0
7.236887760000172,11874,448,0
7.240023142000155,2464,768,0
7.243154292000327,0,1280,0
7.246972755000115,7697,2352,0
7.250017706000108,688,0,0
7.253878402000282,2304,2304,0
7.256884645000355,1856,9218,0
7.260791191999942,1888,6913,0
7.264082416000292,5201,10050,0
7.267823251000209,11250,17700,0
7.271740530999978,6097,560,0
7.274848106000263,20452,4609,2512
7.278770807000001,7377,2640,0
7.282669048000116,0,13523,768
7.285846614000093,12835,5121,7425
7.289774519000275,6289,2544,0
7.293620321000162,6129,6129,0
7.296835671000281,15107,4609,528
7.300774854000338,15987,1104,0
7.303705379000348,4769,768,0
7.307654128000195,2224,6865,0
7.310607979999986,2064,448,0
7.314578263000385,8418,5921,0
7.318602858000304,11890,1104,0
7.3216666540001825,7729,5121,0
7.324817597000219,0,9586,0
7.3285642310002,11266,1712,0
7.332818291999956,14611,13283,0
7.3358621649999805,1088,2592,5601
7.339839532000042,12082,14675,0
7.343788570000015,1760,12034,0
7.346793687000172,10882,672,0
7.350881003000268,19188,15827,4593
7.354799386000195,12178,2720,0
7.357736925000154,11634,800,0
7.361678653000126,3056,8610,0
7.365757523999946,0,1824,2640
7.368695516000116,3632,3136,0
7.372911099000248,11346,3328,2992
7.3768593920003696,19348,960,2128
7.380019221000111,6369,5473,0
7.3839312580003025,0,2928,6641
7.387801057000161,30775,912,10962
7.391025186000206,16227,0,4193
7.395025390000228,7297,2976,0
7.398041600999932,7025,9330,0
7.401917890000277,416,4161,3680
7.405943061000016,14083,1312,0
7.408983238000019,576,6817,0
7.412917934000234,192,7825,0
7.416079910999997,8498,2048,9474
7.420044918000258,1792,7089,6497
7.423972301000049,3328,1312,5633
7.427740623000318,11410,12467,0
7.431010424000306,0,12787,0
7.434893643000123,1792,4016,5153
7.437948541999958,16131,752,0
7.441894182999931,2224,5889,0
7.4448925350002355,0,2240,0
7.4489893140003005,12835,8674,1200
7.452993090000291,8962,18644,2384
7.456028271000378,624,5041,0
7.459990587999982,8418,3088,0
7.463931051000145,3472,5473,2896
7.466985554000075,4369,3728,0
7.470800670000244,7153,7393,0
7.473917550000351,1312,688,0
7.477823909000108,6993,3248,0
7.480934642000193,2992,2416,0
7.484817090999968,10770,8850,0
7.488719067000147,12723,6449,0
7.492041412000162,2816,6001,720
7.495843752000383,4641,3696,8450
7.499894979000146,5441,5569,0
7.502857065000171,19716,1136,0
7.506932175000202,13363,448,0
7.510157985000205,8530,1056,0
7.513953051000044,18292,5585,0
7.517834656000105,14499,7345,0
7.520995746000153,3600,6849,0
7.5250044720000915,38729,16500,5329
7.528790414000014,2416,13907,0
7.532866861999992,17972,4353,3184
7.536014383000293,20741,1824,0
7.539847825000379,27398,2736,5905
7.543809580000016,20917,1072,5105
7.5478482180001265,12114,544,0
7.5511045739999645,2976,2096,224
7.554780859999937,8145,2128,0
7.557872106000104,7937,2704,0
7.561802411000372,944,176,1472
7.564953512000102,1120,768,0
7.568776375000198,1328,6657,0
7.5718745760000274,4417,8738,0
7.57578635200025,0,14035,3328
7.579661490000035,1264,288,0
7.582768061000024,176,5889,0
7.586692756000048,3008,13619,0
7.589833779999935,2384,1552,10082
7.593872145000205,3152,22213,96
7.597787795000386,5521,656,256
7.601636072000019,7185,976,7473
7.604654199000379,1872,4209,4465
7.608610600000247,13027,4241,0
7.611663491999934,0,7137,8562
7.61585591300036,6913,7521,5841
7.619843094000316,11826,1728,0
7.622634879000088,0,576,2336
7.626730520000365,8594,4097,0
7.629813708000256,3280,2800,0
7.633771197999977,16307,3440,0
7.6376984520002225,2384,1152,6001
7.640800630000285,11890,736,0
7.644709362999947,1488,6833,1088
7.648582075000377,4000,1072,2928
7.651726966000297,6625,6609,0
7.655870788000357,13763,8674,12851
7.659666458000174,10498,3856,0
7.662896928999999,3232,0,0
7.666801127000326,20981,4465,0
7.670003236999946,0,1280,0
7.673819580000327,7409,6065,0
7.678095420000318,13571,5121,0
7.680582267000318,0,5889,0
7.683854351000264,2672,544,5617
7.6877615769999466,544,9074,224
7.691702076000183,2368,16115,0
7.695667892000074,9906,21077,2000
7.698769637000169,6689,7009,0
7.7026695839999775,0,2208,7489
7.705799764999938,2880,6513,0
7.709742365000238,10786,1120,9346
7.713561848000154,3696,1088,0
7.716614113000105,0,14003,544
7.720559279000099,2784,5793,544
7.723614828000336,15699,13379,0
7.727585884000291,6289,4193,4161
7.7315365580002435,7441,0,0
7.734556828000223,2432,2720,0
7.73754344300005,0,2992,0
7.741542866000145,0,6801,0
7.744589866000297,688,2992,0
7.748535304000143,8674,1792,0
7.751590061000115,4337,1216,320
7.755947643000127,10418,3280,0
7.758557079000184,0,1248,608
7.762504533000083,0,4305,1808
7.766474532000302,3488,3072,0
7.769477112000004,2064,6049,0
7.773502455000198,1360,2512,9474
7.776511348999975,0,10610,0
7.780512904000261,752,768,1456
7.783558431000074,0,768,1136
7.787543942999946,5713,11442,0
7.791514224000366,11634,3728,3296
7.794513966000068,5553,3920,0
7.798473221000222,15123,1136,0
7.802445328999966,1024,2480,10402
7.805563188000178,4881,9714,0
7.8095563670003685,7921,1024,0
7.813786640000217,7825,2544,6913
7.817792531000123,23301,2496,2304
7.8207946880002055,11522,2800,0
7.824792990000333,15923,9218,8882
7.828535079000176,6401,15651,15027
7.832763289000013,55101,9506,18772
7.836795946000166,15107,10834,496
7.839902451999933,2304,5841,0
7.843562054000358,3024,5937,0
7.84670393100032,14355,0,0
7.85067089200038,1984,1168,368
7.854663898000126,6833,1808,0
7.857726164000269,7169,2016,0
7.860761303000345,0,2304,0
7.8646989090002535,0,6529,0
7.867732827000054,6097,848,0
7.871693619000325,160,1280,0
7.874911120999968,7153,1696,0
7.878742074999991,768,1328,2192
7.881876741000269,4881,3696,0
7.885808456000177,2000,400,2384
7.889698078000038,2176,9698,0
7.892810969000038,22101,4865,0
7.896729295000114,15395,19924,13731
7.9006597269999475,6961,21317,22997
7.904613826000059,2800,11026,0
7.907609519000289,4209,912,0
7.911829244000273,4817,2560,2544
7.9158090320001975,720,2208,0
7.918575291000252,10322,1792,0
7.92259481200017,3696,3072,1968
7.925806102000024,0,752,0
7.9297629020002205,4753,2016,0
7.932612513000095,31079,1088,0
7.936667761000081,17972,15331,7937
7.940648374000375,18740,1632,14915
7.944835172000239,36696,4929,0
7.948735320000196,19940,5073,20244
7.952820886000154,9378,25398,4209
7.956814695000048,22965,25462,7393
7.9606678390000525,5617,35224,23397
7.964821705000304,27590,36937,2608
7.96783804100005,4689,1456,0
7.971822196000176,8129,5361,4080
7.975764827000148,10050,3488,3696
7.978854860999945,5297,3760,0
7.982669237000209,0,2384,0
7.9858752100003585,4353,1136,0
7.98971338399997,112,1936,0
7.992717357999936,5681,2768,0
7.996584903999974,5921,976,0
7.999707356000272,624,1200,0
8.002576006000254,0,1040,0
8.00653054400027,7729,896,1488
8.010527588000059,9330,912,4785
8.014498206000098,9938,1824,4641
8.017561367000326,11090,2544,0
8.021512926000014,0,16804,8818
8.02541566300033,15971,624,1968
8.028506343000117,8402,1584,2160
8.032499930000085,22373,30631,768
8.036484470000232,65535,2960,7633
8.040469733000009,1024,10946,0
8.044488218999959,41706,4641,9330
8.048508552000385,42250,24886,18388
8.052513175000058,20981,8866,3104
8.055514594000215,5585,8450,0
8.059502501000225,13619,11922,0
8.06251768400034,5409,768,0
8.06647758500003,2848,2304,768
8.070469595000304,7441,2144,1200
8.07448316900036,16083,4097,3424
8.077545833000386,2800,4609,720
8.081501385000138,736,6913,0
8.08452362800017,512,1440,0
8.088544099000046,0,1568,0
8.091547188000277,0,1456,0
8.094594441000027,176,736,1792
8.098565088000214,1552,3328,9682
8.102500368000165,4593,0,4513
8.105555624000317,0,9650,1568
8.109545781000179,0,2704,1712
8.113509892000366,3680,4321,7313
8.116539886000282,3424,1712,0
8.12051955600009,4257,3552,0
8.124525523000102,13235,3840,2368
8.127538989000186,36104,4353,3424
8.131560405000073,8690,21109,0
8.135529253000186,11266,1104,23237
8.139498103000278,34936,16644,0
8.142498552000234,0,6913,0
8.146470536000379,0,3088,2224
8.14951312300036,11202,3504,3136
8.15350976200034,18676,3888,0
8.15747366200003,15203,18772,0
8.161533167000016,7393,20789,4129
8.1713012780001,15491,19188,2592
8.17176076800024,10610,3152,0
8.175126195000303,496,4977,2304
8.176591898999959,14083,2880,3072
8.179579042000114,17652,2608,0
8.18352189799998,4161,4353,0
8.187499287000264,14707,768,0
8.190494860999934,24694,9730,0
8.194514058000095,4257,6513,528
8.19853599399994,23477,1328,1744
8.201490462000038,0,7457,0
8.205497215000378,21765,1168,160
8.208577835000142,6849,2608,0
8.212527433000105,2288,7201,0
8.216483083000185,23477,5873,0
8.21953379100023,720,8466,0
8.223512963000303,1536,2720,1104
8.226536260000103,25702,6545,0
8.230551461000232,9730,5121,880
8.234510151999984,25606,7537,6817
8.238502045000132,5905,1392,6321
8.241540051000356,0,2816,0
8.245512730999963,1792,864,0
8.248540052999942,1296,4048,528
8.252524997000364,8418,6673,80
8.255523331999939,7969,1440,0
8.259458579000238,17188,7633,0
8.263468905000082,8978,3680,0
8.266496522000125,816,1712,0
8.269512356000178,0,3168,0
8.273497561000113,2480,4353,0
8.276471181000034,544,1392,0
8.28049531600027,1392,1376,0
8.28350304200012,22837,1280,0
8.287501587999941,32103,4145,0
8.29147517499996,19908,2352,0
8.294485840000107,16980,1792,0
8.298475869999947,23845,2736,0
8.302452041000379,25590,1312,0
8.305495073000202,5633,3520,0
8.309461299000304,7201,1168,1792
8.312511994000033,13011,432,0
8.316487634000168,19204,5617,0
8.320467024000209,26902,3584,0
8.323492849000104,12979,1648,0
8.327459255000122,768,4369,0
8.330558089000078,33816,0,0
8.33457625300025,54173,2048,0
8.337540401000297,0,2000,0
8.341500988000007,24405,2992,0
8.344545657000253,1856,1280,0
8.348537667000073,4817,2112,4064
8.35251650500004,34664,3072,0
8.35555346000001,23829,3008,240
8.359528309000325,26310,7281,0
8.36351858900025,28759,2144,0
8.367509022000377,11954,3232,16580
8.370512557999973,17076,880,0
8.374507371000163,12002,48,0
8.377512367000236,15139,3056,0
8.381502879999971,6209,1792,0
8.38455765200024,22533,1264,0
8.388521122000384,26646,1584,0
8.392511954000383,16211,1312,1008
8.395537069000056,7761,2912,0
8.399516011000287,5489,2496,0
8.403502661999937,11714,3120,0
8.406529202000002,4273,4321,256
8.410510984000211,1328,1120,0
8.414505031000317,14611,1920,368
8.41750569900023,18100,5841,0
8.421499833000325,5153,2224,0
8.424534107999989,9698,1024,0
8.428488661000301,2960,2640,0
8.431534751000072,26054,2576,0
8.435516466000081,6705,5793,0
8.439497316000143,21685,3328,0
8.44248191800034,9026,2064,0
8.446490816000278,7793,1280,0
8.449536334000186,16548,736,0
8.453529558000355,8033,224,0
8.456554956000218,656,1792,0
8.460477250000167,704,1488,0
8.463521079000202,96,2720,0
8.466540008000266,5137,2016,0
8.47052607500018,3424,3024,0
8.47447834400009,1488,1024,0
8.477528431000337,2672,4097,0
8.48151473200005,17988,1488,0
8.484534589000305,2992,2544,0
8.4884928460001,11618,1040,0
8.491540436000378,1328,10722,0
8.495489930000076,5857,2576,0
8.499468216999958,2736,1952,0
8.502491108999948,1280,4449,0
8.506479766000211,11010,1648,0
8.509474983000018,11170,2400,0
8.513484819000041,9250,2208,0
8.516481979000218,8033,768,0
8.520456971000385,18628,560,0
8.523509769000157,8466,3728,0
8.527468559000226,0,912,0
8.530505205000281,1280,2352,0
8.534475410000141,10786,2816,0
8.53749539599994,9554,1792,0
8.54147925999996,2864,2464,0
8.544473562000348,0,1280,0
8.548441429000377,592,2832,0
8.551496815000064,9794,4032,0
8.555437545000132,5377,2304,0
8.558499700000084,9986,1872,0
8.561501961999966,0,2336,0
8.565493316000357,5985,11522,0
8.569466475000354,1744,1504,0
8.572494588000154,9298,1488,0
8.576476029000332,9186,3440,0
8.579474604000097,2528,2336,0
8.583462650000001,32,3024,0
8.58648146700034,2256,240,0
8.589496069000234,336,2352,0
8.59349450000036,14931,4609,0
8.597481554000296,36344,2224,0
8.600499169000159,3552,2816,0
8.60448580100001,26534,1536,0
8.607477517000007,12819,1184,0
8.611507323000296,1760,3328,0
8.615481589999945,10578,2064,0
8.618457925000257,704,2736,0
8.622520811999948,8402,1696,0
8.625532983000085,8962,2000,0
8.628583357000025,0,2048,0
8.632902754000042,15347,5969,0
8.636532897000052,23973,2304,0
8.639530899999954,25862,2320,0
8.643500262000089,0,1440,0
8.646566447000168,3744,1184,0
8.65049825999995,768,1872,0
8.653532817000269,23557,816,0
8.657477953000125,6049,1712,0
8.660500515999956,3072,1200,0
8.664511573000254,1696,2624,0
8.667510295000284,3920,784,0
8.670508323000377,0,1616,0
8.674481640000067,0,4753,0
8.677498037000078,1584,2464,0
8.680510600000162,0,1984,0
8.684470999000041,8850,2656,0
8.687574382000093,8610,880,0
8.691487105000306,2720,3328,0
8.694511174000127,176,1136,0
8.698492723000072,3168,2592,0
8.7014697970003,0,2096,0
8.705511889000263,4289,1040,0
8.708534834000147,3600,1024,0
8.712491734000196,432,5953,0
8.71549446400013,7521,1648,0
8.719518117999996,2144,2256,0
8.722504011000183,0,1200,0
8.726450114000272,3328,2464,0
8.729482929000369,0,1024,0
8.733461618000092,5585,1680,0
8.736483294000209,6801,2352,0
8.740467407000324,1392,1280,0
8.743486665000091,1040,1760,0
8.747468090999973,5633,1072,0
8.750481648999994,0,1808,0
8.75350077200028,3408,1408,0
8.757488147000004,4417,3408,0
8.76051670400011,0,1328,0
8.764470347000042,0,2144,0
8.767460206000123,4369,1104,0
8.771441896999931,2144,1280,0
8.774488321000263,3424,2144,0
8.77844857700029,2352,1632,0
8.781494506999934,0,1648,0
8.784493451000344,0,2320,0
8.788479464000375,224,2048,0
8.791464289000032,5425,1456,0
8.795468515000266,7105,848,0
8.79849002500032,6401,1280,0
8.802452469999935,2240,1104,0
8.805532387000312,3440,2240,0
8.80954997300023,560,1600,0
8.812535752000258,2768,1568,0
8.816515324000193,11458,2816,0
8.820497591000276,32695,2672,0
8.823503689000063,30199,1968,0
8.827509344000191,6833,1312,0
8.830496293000124,4241,592,0
8.834478799999943,14291,1584,0
8.83749512400027,13011,1264,0
8.84149083400007,16692,4865,0
8.845437724000021,16339,1296,0
8.848486291999961,21525,1792,0
8.852472097000373,2592,1712,0
8.855487645000267,352,2128,0
8.859471044000202,1648,2304,0
8.862465737000093,2912,1760,0
8.866458253000019,0,2080,0
8.869485663999967,4048,1296,0
8.873441686000206,12274,1936,0
8.876496291999956,13107,1888,0
8.880477818000145,22341,7745,0
8.884464910000133,18612,2192,0
8.88748260300008,1536,1680,0
8.891474394999932,17044,1872,0
8.89452768800038,6753,1056,0
8.898511306000273,2992,2336,0
8.901482687000225,0,1216,0
8.905492748000142,1552,1776,0
8.90850067600013,3248,1744,0
8.912462996000158,240,1008,0
8.915531230999932,11474,2144,0
8.91951327300012,36024,1712,0
8.922534383000311,8466,2064,0
8.926525333999962,5217,4353,0
8.929529273000298,944,1568,0
8.933496305000062,8658,5265,0
8.937503755000307,22437,1264,0
8.94052509500034,2528,1792,0
8.944477542000186,14851,1504,0
8.94753001700019,22965,1840,0
8.95150056500006,34824,5329,0
8.955495690000134,9586,1024,0
8.958513388000028,20420,3072,0
8.962495850000323,14387,1520,0
8.965517565000027,27398,2336,0
8.969500487999994,17444,6929,0
8.973494218000269,8418,1536,0
8.976483499000096,0,3328,0
8.97952662300031,8722,16,0
8.98350110399997,9938,848,0
8.986520102000213,5857,1936,0
8.990507383000022,10866,1552,0
8.993530313000065,29335,768,0
8.997514980000233,17412,2144,0
9.000533295999958,15123,880,0
9.00452601699999,27158,1424,0
9.008504791000178,15651,2272,0
9.011555133000002,62367,1280,0
9.015526591000253,65535,12739,8434
9.019513288000326,50140,2048,0
9.023479984999994,49372,2848,0
9.026540358000148,6161,1792,0
9.03047973799994,768,1904,0
9.033494706000056,16243,1840,0
9.037504391000311,3840,2032,0
9.04052784500027,10098,1376,0
9.044487007000043,3328,3664,0
9.047533965000184,55773,1584,0
9.051481325000168,44538,3632,0
9.055485966000106,14595,992,0
9.058531394000056,35880,2832,0
9.062481078000019,13811,864,0
9.065530364000097,7377,1232,0
9.069510253000317,768,2640,0
9.072527832000105,65535,1248,0
9.07651937000037,32519,5137,0
9.080504951999956,36600,1232,0
9.083531308000147,37657,2176,0
9.087513487000251,35320,1584,0
9.090535544999966,28438,864,0
9.094490034000046,22677,2304,0
9.09845059700001,8754,1856,0
9.101510837000205,37529,2128,0
9.10548567700016,33896,1888,0
9.108531502999995,19140,1056,0
9.112515824000184,34280,3824,0
9.116491081000277,28422,720,0
9.119522754000172,24325,1824,0
9.12350974300034,53421,2304,0
9.126501556000221,19028,688,0
9.130522170999939,9986,6145,0
9.134500014999958,34056,1680,0
9.1375051240002,6705,1216,0
9.141494611000326,24565,1008,0
9.144511355000304,42234,1328,0
9.148481870000069,1280,6065,0
9.15245274400013,17364,1600,0
9.15551619200005,5681,1936,0
9.159486700000343,9122,1872,0
9.162482908000129,7473,2000,0
9.1665013490001,9458,1584,0
9.169519145000322,2544,1264,0
9.173499793000246,7393,1296,0
9.176500770000075,13859,2032,0
9.18048895300035,13603,8386,0
9.183517216000382,7889,2544,0
9.187559315000271,17636,1776,0
9.191428576000362,3392,992,0
9.194529976000013,2464,2688,0
9.19852445000015,1280,2256,0
9.201502618000177,1792,1488,0
9.205502856000294,3504,1056,0
9.208499771000334,5089,2096,0
9.212480099000004,2352,2656,0
9.215528892000293,12499,2128,0
9.219512468000175,3280,5297,0
9.222517463000258,4673,1312,0
9.226510952000353,12323,2096,0
9.230482401000245,2160,2048,0
9.233517192000363,8450,2304,0
9.237495707000107,384,1824,0
9.240513007000118,736,1056,0
9.244425358000171,816,1600,0
9.247484335000081,6417,2816,0
9.251460813999984,1440,1904,0
9.254494612000144,3104,2816,0
9.258460039000056,1440,1360,0
9.26146440499997,832,2416,0
9.265439423000316,10306,976,0
9.268501966000258,12210,1456,0
9.272501281000132,3088,2304,0
9.275453775000187,6289,2144,0
9.279477715000212,0,3424,0
9.282520225000098,1168,1568,0
9.286473657999977,6481,1968,0
9.289445613000225,2080,1232,0
9.293480063000061,7937,1712,0
9.296571662000133,10194,2784,0
9.300523054000223,96,5873,0
9.303569743000025,0,1488,0
9.307549731000108,2048,1280,0
9.310498119000385,6001,1936,0
9.314501207000376,1024,1792,0
9.31753931000003,5889,2752,0
9.321489391000341,1968,1744,0
9.324547326000356,0,1904,0
9.328546822000135,6401,1952,0
9.33155585600025,3872,2288,0
9.335515515000225,1760,1904,0
9.338567250000324,2080,2304,0
9.34254791100011,1328,1744,0
9.345561063000332,1808,1792,0
9.34954505099995,1936,1872,0
9.352542367000297,5457,1584,0
9.35652453800003,15731,2464,0
9.359572748000119,3040,1072,0
9.363557755000329,4593,3344,0
9.366510568000194,6129,0,0
9.37055056500003,1520,1408,0
9.37354606000008,8562,1520,0
9.377463000000262,7617,2048,0
9.380508252000254,0,656,0
9.384834427999976,1648,2000,0
9.38752436599998,6753,2528,0
9.39148879000004,1536,1792,0
9.394544662000044,7025,1392,0
9.398548529999971,7425,2400,0
9.401504928000122,0,912,0
9.404560968000169,1520,768,0
9.408562519000043,4865,6145,0
9.411551056999997,4353,2576,0
9.415556777000347,11874,4529,0
9.419533658000091,4785,2304,0
9.422559051000007,2064,1376,0
9.426559759000156,4321,2048,0
9.429536163000193,1840,1360,0
9.433535056999972,5873,2064,0
9.43655359200011,3328,2752,0
9.440514162,2336,2800,0
9.443567887999961,1504,1776,0
9.447542715000054,6849,8946,0
9.450554876000297,3328,2288,0
9.45456193200016,6241,4097,0
9.457895056000325,5649,144,0
9.461532295000325,7697,4097,0
9.464574783999979,2016,2272,0
9.468522789999952,7073,1808,0
9.472502606000035,3184,1296,0
9.475558622000335,3792,2672,0
9.479536596000344,1520,2272,0
9.482552647000375,352,1712,0
9.486531422000098,1792,2048,0
9.489516229999936,2032,2128,0
9.493490374999965,7425,1696,0
9.496563150000384,4097,3264,0
9.500546491000023,1744,2560,0
9.50356833800015,320,2128,0
9.507532912999977,7793,2096,0
9.510493719000351,112,1744,0
9.514509094999994,4769,1200,0
9.517522758000268,5233,1200,0
9.521474284000305,400,1424,0
9.52450892600018,2544,1184,0
9.52851926600033,3808,1024,0
9.53155437300029,1808,1120,0
9.5355048790002,3904,2512,0
9.538498061000155,2496,1744,0
9.542482752000069,1568,4769,0
9.545531132000178,5041,2576,0
9.549510490000102,5409,3072,0
9.553517012000157,4529,2000,0
9.556781582999974,8322,2800,0
9.559578899000371,1696,80,0
9.563556577000327,4465,2736,0
9.566575434000242,4016,256,0
9.570554041000378,1264,4657,0
9.574531486000069,6449,1040,0
9.577558123000017,8850,3040,0
9.581523946000289,1360,1216,0
9.584535581000182,4016,2048,0
9.588515895,3616,2288,0
9.591565533999983,3296,1824,0
9.595517980000295,2816,1680,0
9.598571339000046,2800,1440,0
9.602819724000256,912,1120,0
9.605563831000381,5041,2480,0
9.609543692999978,6801,1328,0
9.61256613400019,3232,1392,0
9.616541163999955,9170,2496,0
9.619532791999973,1568,2080,0
9.623529681000036,1392,5169,0
9.62656803100026,6945,1296,0
9.630552083000111,3920,2416,0
9.634496564000074,2064,1312,0
9.63754761500013,1616,2304,0
9.641477303000102,1024,672,0
9.64455223799996,2368,2224,0
9.648551361000045,10594,1936,0
9.651476061000267,1216,1792,0
9.655537988000106,3664,1008,0
9.658522529000038,2864,2304,0
9.66251198000009,64,2256,0
9.665562250000221,1616,2304,0
9.669542750000346,2080,2320,0
9.672557392000272,5473,2512,0
9.676545725000324,9618,1280,0
9.679526155000076,1024,2816,0
9.68350728600035,352,1664,0
9.686555733000205,9506,848,0
9.690501699000379,880,2768,0
9.693545649000043,6065,1392,0
9.697504849000325,4657,3328,0
9.700500081999962,2080,1280,0
9.704494304000036,3568,288,0
9.707522112000333,4785,1376,0
9.711498122000194,3616,1696,0
9.714552048000314,2096,2512,0
9.71850847900032,3760,1456,0
9.721532283000215,1792,2016,0
9.72550693300036,2336,5809,0
9.729483771000105,7681,1536,0
9.732545961000142,4865,2336,0
9.736527050999939,5425,2800,0
9.739536060000319,5649,1856,0
9.743507130000125,5601,2464,0
9.746553449000203,16307,1648,0
9.750478599999951,5361,1264,0
9.753561442000318,1584,1552,0
9.757558759999938,5905,1280,0
9.760534259999986,0,1712,0
9.7645105280003,3360,1280,0
9.767560714999945,1840,1424,0
9.771497834999991,1104,2736,0
9.774556800000028,7569,1712,0
9.778536505000375,4721,2560,0
9.781503858000178,14115,1792,0
9.785542144000374,15091,2240,0
9.789517311000054,1680,864,0
9.79252193900038,13539,2320,0
9.796513995000169,14115,3232,0
9.799564722000014,1600,1072,0
9.803541341000255,1200,2176,0
9.806560165000064,3680,1696,0
9.810536229000263,624,6705,0
9.813535191000028,1280,1584,0
9.817538020000029,13059,7025,0
9.82148165100034,1248,1344,0
9.824541373000102,2736,2864,0
9.828520440000375,144,1360,0
9.831513419000203,6577,2816,0
9.835524002000056,5105,2016,0
9.838524860000234,7025,2240,0
9.842540680000184,1024,2272,0
9.845558819999951,3456,1968,0
9.849506931000178,3088,2560,0
9.852558090999992,3040,1632,0
9.856534872000339,17172,2800,0
9.859558173000096,256,1760,0
9.863533278999967,0,1760,0
9.866519187999984,3440,2704,0
9.870499813000151,944,1888,0
9.873553089000325,4657,2064,0
9.877511238000352,2272,1648,0
9.880551604000175,752,1008,0
9.884530453000025,8530,2336,0
9.88754800300012,2400,864,0
9.891476810000313,3856,672,0
9.894543692000298,6961,3696,0
9.898523866000232,736,1296,0
9.901514048000081,2304,1632,0
9.905469476000235,1184,2032,0
9.908559205000074,10514,3376,0
9.912541573999988,5729,2544,0
9.91552603700029,4113,3072,0
9.919527370000196,736,2080,0
9.92248425300022,12627,768,0
9.92648904500038,5537,1456,0
9.92952281800035,768,2560,0
9.93349592200002,14243,880,0
9.93652665100035,5841,1712,0
9.940499689000262,1792,8434,0
9.94354137900018,1456,2320,0
9.947509457000251,3440,4097,0
9.951486001000376,5345,1792,0
9.95448645200031,5041,2080,0
9.958425938000346,2304,1776,0
9.96153459900006,1648,1056,0
9.96548229200016,3376,464,0
9.96850736100032,2272,2656,0
9.97244949900005,224,1024,0
9.975449540000227,7201,2672,0
9.979485149000084,9442,1744,0
9.982506573000137,608,1616,0
9.98645075100012,208,1952,0
9.98950624400004,1536,2336,0
9.993520126000021,6897,1952,0
9.996553116000086,11026,2656,0
10.000497971000186,3376,2304,0
10.00353130900021,1184,2240,0
10.00754573200038,5377,2224,0
10.010543530000177,4449,1424,0
10.01447844600034,1936,800,0
10.017525860000205,416,2032,0
10.0214789810002,0,1440,0
10.024506338000265,1552,1760,0
10.028522120000162,6001,1280,0
10.031526347000181,11890,1808,0
10.035499423000147,6401,1712,0
10.038556051000342,28422,2576,0
10.042551768000067,24197,7217,0
10.046522675000233,5857,2928,0
10.049554745000023,10242,1504,0
10.053540268000233,2704,2304,0
10.05653563900023,10962,2784,0
10.06053404000022,0,1952,0
10.063557688999936,10514,1024,0
10.06749853700012,9122,1904,0
10.070558875000188,11010,768,0
10.074536919000366,1280,2320,0
10.077566017000208,1744,1968,0
10.081548658999964,2896,7537,0
10.085516992000066,10914,1184,0
10.088511998000286,3040,2448,0
10.092520107000382,6353,1456,0
10.095514130000083,1840,2720,0
10.099529498000265,20228,2272,0
10.102553417000308,24373,2288,0
10.10654054700035,21509,7265,0
10.110474791000343,7953,1760,0
10.113593348999984,304,1744,0
10.117531859000337,1888,2560,0
10.120540561000325,2176,3504,0
10.124489823000204,1376,2176,0
10.127509971000109,8161,2576,0
10.131527713000196,1248,432,0
10.134543590000249,2288,2480,0
10.138531196000258,4257,1280,0
10.141540909000014,3424,1776,0
10.145527235000372,1632,2096,0
10.148545732000002,1792,1840,0
10.152499643000283,7265,2640,0
10.155551077000382,7057,1264,0
10.159497023000313,2304,1776,0
10.162471834000371,112,1648,0
10.166512020000027,2048,2304,0
10.169520709000153,2064,1792,0
10.173545928000294,3184,5889,0
10.176520104000247,3008,2672,0
10.180518692000078,3536,2720,0
10.184477447000063,1280,2656,0
10.18750753400036,10770,1584,0
10.191467705000377,1312,1264,0
10.19451231100038,3520,1328,0
10.198492115000136,3648,2848,0
10.201759823999964,0,2304,0
10.205483283000376,2704,1984,0
10.208482986000035,6769,1824,0
10.212485287000163,3264,1696,0
10.21551265800008,3840,1232,0
10.219487461999961,2304,1456,0
10.222550699000294,32,2304,0
10.226484807000361,4913,1440,0
10.229848440000296,5377,1456,0
10.23349940800017,2784,2048,0
10.236494929999935,7169,3024,0
10.240452370000185,0,2416,0
10.243503960999988,1504,2320,0
10.247486154999933,6033,1216,0
10.250860343000113,1328,2528,0
10.254512879000231,4353,2608,0
10.25748439500012,4273,1840,0
10.260521675000291,0,1280,0
10.264502670000184,6001,3408,0
10.268547796000348,4785,4048,0
10.271524866000163,3120,1568,0
10.275461456000357,1968,2400,0
10.278482347000136,5313,4625,0
10.281545267000183,0,1792,0
10.285485968000103,5121,3328,0
10.289447570999982,4801,1808,0
10.292534589000297,4145,2320,0
10.296516723999957,6513,2592,0
10.29953529300019,2784,2320,0
10.302555314000074,928,944,0
10.306504697000037,7377,2992,0
10.31085524900027,1024,2240,0
10.31354267200004,4673,2144,0
10.31749721899996,5073,1936,0
10.320534954000323,1440,2304,0
10.323550296000121,0,1760,0
10.32751313200015,10754,3856,0
10.331485582000369,208,1920,0
10.334886385000118,3664,2992,0
10.338548918000015,4865,1472,0
10.341526461000285,0,1568,0
10.344513988000017,960,1440,0
10.348533451000094,1696,1792,0
10.35152744700008,3264,2256,0
10.355485229000351,3440,5041,0
10.358604913000363,3344,2032,0
10.36247202100003,4657,3840,0
10.36644589100024,4609,2240,0
10.369544326000323,4897,3888,0
10.373476411999945,4833,1424,0
10.37653314499994,8370,3312,0
10.379522223000095,0,2304,0
10.383487964000324,0,4865,0
10.386486662000152,4705,2336,0
10.390474273000109,0,2304,0
10.393501795000248,6449,2912,0
10.39746455400018,7521,1936,0
10.400501568999971,1760,1680,0
10.404491960000087,1072,1808,0
10.407472723999945,5809,1232,0
10.411497736000001,1056,2448,0
10.41449529800002,2768,3136,0
10.418474589000198,4353,1024,0
10.421508150000136,496,1968,0
10.425465442000132,688,1648,0
10.428477489000215,5313,2544,0
10.432449065000128,2416,2720,0
10.43551272600007,4609,2112,0
10.439498050000111,4593,2544,0
10.442445283000325,0,1712,0
10.446466557000349,4097,1744,0
10.449513234000278,3072,2480,0
10.453442371000165,2976,2016,0
10.456547397000122,2816,1808,0
10.460499942000297,768,2928,0
10.463508827000169,0,1744,0
10.467488120000326,7473,1280,0
10.470495587000187,1280,2800,0
10.474531388000287,2048,1792,0
10.477486215000226,912,3408,0
10.481483392999962,656,1584,0
10.484538219000115,7073,3616,0
10.488500951000333,7697,832,0
10.491494977000002,3152,3424,0
10.495460223999999,1008,2096,0
10.498450204000164,4337,3808,0
10.501447737000035,0,1824,0
10.50549663000038,3136,7649,0
10.508512282000083,4209,2144,0
10.51250372000004,7137,3504,0
10.516479760000038,6033,2240,0
10.51950510000006,4929,4225,0
10.522516500000165,0,1424,0
10.526530640000146,2208,2688,0
10.529563303000032,1424,2064,0
10.533542026000305,4048,5921,0
10.5365749890002,5409,1024,0
10.540535680000175,4097,2816,0
10.544513994000226,1248,1760,0
10.54743783899994,5905,1488,0
10.551490425000338,1616,1200,0
10.55447502700008,2064,1536,0
10.558433322000383,3264,3776,0
10.561540636000245,352,2384,0
10.565523012000085,944,1776,0
10.568474937000246,6961,2304,0
10.572525735,3184,1792,0
10.575481309000224,4625,2208,0
10.579493181000089,2320,1808,0
10.582508529000279,0,1280,0
10.586481878000086,3408,1440,0
10.589505163000013,3184,2208,0
10.593517449000046,176,1312,0
10.596477637000135,5809,3824,0
10.60045491100027,1744,1376,0
10.603548512000089,1488,1760,0
10.607527983000182,3504,1744,0
10.610506442000315,848,2064,0
10.614489079000123,2720,2048,0
10.617484715000046,3216,1712,0
10.621470554000098,1776,912,0
10.624504480000269,2064,1776,0
10.628466643000138,6337,2464,0
10.63153658200008,1792,1296,0
10.635493596000288,1632,800,0
10.638487120000264,3760,2720,0
10.642472454000199,752,3024,0
10.64545698000029,1984,2144,0
10.649431775000266,3504,1840,0
10.652479273000154,2448,1616,0
10.656485457000144,9202,3120,0
10.659530099000222,0,1792,0
10.663423856000009,816,1392,0
10.666481816000214,4689,3376,0
10.670432338999944,272,1008,0
10.673470338000243,5345,2208,0
10.677441473000272,8113,1456,0
10.680484354000328,1024,1712,0
10.684406327000033,992,1968,0
10.687487158000295,8706,1440,0
10.69143844600012,1264,1312,0
10.694468165000217,5041,2048,0
10.69842189000019,3744,2976,0
10.701447309000287,592,1104,0
10.705464074000247,304,2240,0
10.70851397000024,2992,2160,0
10.712474047000342,3904,1520,0
10.7154617340002,3168,1280,0
10.719467036999959,4385,3648,0
10.722503207000045,0,1712,0
10.726493492000372,3632,2160,0
10.729508365000129,4721,1792,0
10.73348158600038,4817,1936,0
10.73647956700006,12451,2304,0
10.74049271900003,1552,1168,0
10.743516624000222,336,1376,0
10.747473010000249,3744,2560,0
10.750496401999953,0,1056,0
10.754502950000187,1552,1744,0
10.757495976999962,9186,2016,0
10.761435995000284,512,1232,0
10.764455553000062,1008,2064,0
10.768481933000203,6401,2336,0
10.77148508900018,3040,1136,0
10.775473269000031,960,2032,0
10.778502204000233,3840,3840,0
10.782472572000188,0,2800,0
10.785496936000072,2768,2464,0
10.78947171200025,4593,2320,0
10.792501166999955,2304,1296,0
10.796456065000257,5089,2224,0
10.799502876000133,1184,1744,0
10.803469419000066,416,3328,0
10.806489475000035,6417,2128,0
10.810477538000214,1472,3024,0
10.813467555999978,1984,2256,0
10.817493879000267,5889,1104,0
10.820507627000097,1328,1712,0
10.824483396000232,0,2496,0
10.827472887000113,5425,1520,0
10.831442007000078,256,1712,0
10.834449114000108,3936,1056,0
10.838415853000242,3536,3120,0
10.841476658000374,688,1648,0
10.845423461000337,1904,1648,0
10.848514848000377,6145,2592,0
10.852488103000269,4016,1776,0
10.85550623600011,5553,1792,0
10.859496248000141,1968,2480,0
10.86249548800015,512,1776,0
10.866466355000284,5937,2208,0
10.869510782000361,2048,3168,0
10.873500769000202,6033,1712,0
10.876520106000044,9074,2272,0
10.8804968190002,2848,6657,0
10.883495416000187,992,3040,0
10.887511304000327,5601,6369,0
10.890520777000347,3024,1776,0
10.894479783999941,5969,5889,0
10.898451479999949,5377,3296,0
10.90150887100026,1440,2016,0
10.905494075000206,240,2320,0
10.908509826000227,9506,2832,0
10.912455263000084,3248,2320,0
10.915501864000362,3952,1280,0
10.919490593000319,4865,3824,0
10.922440223000194,880,2000,0
10.92647181700022,8177,2272,0
10.929495662000136,2480,3584,0
10.933472553000229,4016,1808,0
10.93644248999999,9298,736,0
10.940449142000034,272,4817,0
10.943499594000059,4289,2448,0
10.947474232000332,256,1024,0
10.950492923000184,768,1808,0
10.954486802000247,4833,2064,0
10.95751532200029,17780,3328,0
10.961487743000362,2864,1008,0
10.964504022000256,0,5281,0
10.968431348000195,7265,2160,0
10.97150938699997,9954,2768,0
10.97547690600004,2064,2672,0
10.978496483000072,3312,3104,0
10.98249432700004,2816,1024,0
10.98551433700004,3024,2528,0
10.989476835999994,7409,768,0
10.992473873000108,11442,1184,0
10.996486150000237,13139,1488,0
10.999507857000026,2864,2864,0
11.003496818000258,8434,3696,0
11.00745142400001,14195,1248,0
11.01049408300014,4913,2864,0
11.01449486699994,6385,1520,0
11.017512830000214,27254,2416,0
11.021482112000285,4016,2032,0
11.02448277700023,34024,2896,0
11.028492775000359,6817,2736,0
11.032475858999987,16452,1440,0
11.035494474000188,11362,2288,0
11.03946052800029,20997,1312,0
11.042520722000063,1968,944,0
11.046505268000146,3488,2864,0
11.049509693000346,3536,672,0
11.053471111000363,0,960,0
11.056533385999955,14291,2080,0
11.060459341000296,7249,1296,0
11.06347336800036,11058,768,0
11.067451929000072,11938,528,0
11.070501189999959,1184,1312,0
11.07448935399998,16532,2064,0
11.078475044000243,15507,2768,0
11.081490206000126,16051,1456,0
11.085480063999967,3648,928,0
11.088501775000168,1280,2736,0
11.092467447000217,18932,2992,0
11.095484967000175,6913,1200,0
11.099461750000046,6369,480,0
11.10347532500009,32711,6401,1792
11.106498565000038,13507,1728,0
11.110458671000288,39321,5041,0
11.113498268000058,1280,768,0
11.117483679000088,43578,3440,0
11.121465929000351,65535,3056,0
11.124475177000022,17076,1504,0
11.128502806000142,1776,2432,0
11.131470700000136,9938,1328,0
11.135483334000128,12963,1312,0
11.13851297500014,6193,1040,0
11.142464310000378,29719,4913,0
11.146495405000223,3840,1024,0
11.14954299100009,20789,2816,0
11.153525275999982,20709,3408,0
11.156505953000305,16019,2544,0
11.160535514000003,19460,5297,0
11.164522293000118,15059,6113,0
11.167509862000315,8001,2672,0
11.171481630000017,9490,48,0
11.17446831999996,9474,2304,0
11.178468770000109,29959,1568,0
11.181554680000318,9474,1360,0
11.185409576999973,784,3376,0
11.189475904000119,48619,1280,2416
11.192536628000198,13555,4945,0
11.196501777000321,26694,5345,0
11.199513301000025,16179,3136,0
11.203523614999995,4305,3424,2160
11.207440045000112,36248,1104,0
11.210524509000152,9746,0,0
11.214450638000017,31911,1280,0
11.217553382000006,5121,1280,0
11.22151117600015,30743,2448,0
11.22550455999999,23301,1600,0
11.228473450000365,20549,3104,0
11.232451268000204,44602,3376,0
11.235538440000255,44826,3456,0
11.239472889000353,5329,4689,0
11.24380182699997,22197,3280,0
11.246514008000304,28823,3088,0
11.250743402000353,65535,3392,0
11.253758087000278,47323,912,0
11.257498361000216,34824,5617,0
11.26143612900023,40265,1392,0
11.264471744000275,16740,912,0
11.268438323000282,5265,1984,0
11.271455869999954,31671,1888,0
11.275451087999954,0,2208,0
11.278469201999997,8962,944,0
11.282439536000311,880,800,12034
11.286400118000074,3600,1408,1456
11.289455897000153,2672,2928,0
11.293474439999954,11794,1536,0
11.296481921000122,53277,4449,0
11.300485088000187,1312,2768,5345
11.304489229999945,14563,13107,6705
11.308416456000032,1664,5649,0
11.31151419600019,14675,1776,0
11.315488260000166,4865,2096,0
11.318519709000157,20645,2720,0
11.322495579000133,6929,5633,0
11.32643521800037,7185,6161,272
11.329483322000215,14963,5601,0
11.333451730999968,63215,4433,0
11.33742090700025,11890,7473,0
11.340466571999968,35080,2336,0
11.34442110000009,17252,1536,0
11.347510146000332,4337,1120,0
11.351487052000266,13843,3216,0
11.354532709000068,9122,3392,0
11.358519207999962,6817,3920,0
11.36150535500019,1376,512,0
11.365511045999938,6401,5025,816
11.369486434999999,15875,2272,0
11.373475912000231,10354,1376,1600
11.376466174000143,0,5889,0
11.379502013000092,6241,2160,0
11.383440486000381,30887,3472,0
11.38741518300003,30375,1280,0
11.39051526000003,22293,1056,0
11.394495581000228,8514,2112,3328
11.398451157000181,7969,10290,0
11.402419612000358,960,11922,5905
11.405485711999972,13827,2000,0
11.409478231000321,15299,15107,2416
11.413443483000265,7521,1792,0
11.416498524999952,27638,8546,0
11.42046164300018,5281,6913,0
11.423490131000108,14515,8962,0
11.427483544000097,31015,11010,0
11.431433477000155,0,10386,0
11.4344705540002,24998,2224,0
11.438458765000178,10834,7169,0
11.441565508000167,26582,1616,0
11.445505460000277,4353,4977,0
11.448536144000172,256,2336,0
11.45251476400017,18596,6257,0
11.456477073000315,18068,5217,0
11.459528512000361,2288,2480,0
11.463479173999986,5041,1072,0
11.466499023000324,2240,2816,0
11.470492352000292,1456,1968,0
11.47354770200036,12691,1136,0
11.477440403999935,4785,6065,0
11.480457828999988,9314,2480,0
11.484434150000197,3328,3856,0
11.487439528000323,320,1568,0
11.491468914000052,10642,3888,0
11.49448049800003,0,6753,0
11.498494332000064,13043,11618,0
11.502457825999954,3840,10034,2672
11.50646912100001,2048,4993,5089
11.509487550000358,6385,2032,0
11.513450838000153,19156,18276,0
11.517429944000014,39145,5105,0
11.520502821000264,38713,9970,352
11.524475739000081,1664,10738,0
11.528472242000134,33432,34088,9362
11.5324336890003,27910,928,0
11.535455950000141,9138,2832,0
11.539477592000367,1168,9138,0
11.542475204000311,1440,3424,0
11.546442482000202,2144,12307,0
11.54946995399996,9010,1296,0
11.553459657000076,8097,1344,0
11.557439585000338,9234,4673,720
11.560571272000288,528,3376,0
11.564514885000335,4561,1808,0
11.567516571999931,11426,2736,0
11.571429726000133,0,304,240
11.574494336000043,21797,2976,0
11.578503470000214,13475,13715,80
11.581539199999952,7713,2976,0
11.585536714000227,7905,5377,12915
11.589498211000318,3728,6177,0
11.593505807000383,10226,2176,0
11.596449859000131,8946,2416,0
11.600391138000305,1904,4561,4465
11.603461389000131,2816,1040,0
11.607470045000355,800,7441,1184
11.611426283000128,176,7073,0
11.614468243000374,18004,2208,0
11.618444078000266,27878,4241,784
11.622427713999969,10674,7121,0
11.625449865000064,19636,23349,0
11.629450979000012,33272,18180,4449
11.633440553000128,20581,5153,0
11.636458756000138,6609,5537,0
11.640438479000295,544,8946,0
11.643458123000073,256,12803,0
11.647452455000348,1024,6481,1200
11.651431758999934,1104,1424,0
11.655425250999997,8818,1072,4865
11.658424606000153,8594,2032,720
11.662436941000124,1184,9474,0
11.665455302000282,4241,4064,0
11.669410942000013,7233,1024,0
11.67246025400027,9362,656,0
11.67647379600021,4977,768,0
11.679435094000382,2512,1936,0
11.683449157000268,128,5569,0
11.68644116700034,13427,2144,0
11.690535901000203,6561,752,3120
11.694514872000127,8642,2192,5617
11.698504173999936,11698,928,7409
11.701477723000153,5329,3488,6449
11.705427128000338,7937,5777,15971
11.709535478000362,7713,13139,2064
11.713513761000286,256,3664,2160
11.717505895000158,23269,14387,0
11.720525280999937,23813,1024,0
11.724545375000162,25894,800,2128
11.728534933999981,18404,9042,0
11.731483419000142,21765,8546,0
11.735473865000131,26790,9698,0
11.739510509999945,32519,6929,0
11.742409782000323,928,8033,0
11.746393842000089,15475,3104,0
11.74944965800023,18244,11554,0
11.753658052999981,7185,0,0
11.756605243000195,16836,4641,0
11.760543383000368,9874,2608,0
11.763737786000092,2752,1712,0
11.767626079000365,3056,2240,0
11.770745858000282,0,1504,1168
11.774658025999997,6049,608,0
11.777573758000017,5265,1680,0
11.781510859000264,2208,6689,0
11.785480927000208,10546,2400,4561
11.788488272999984,7697,800,0
11.791539065000052,0,2608,0
11.795514601000377,2288,7249,688
11.799522564000199,0,8450,4032
11.802474290000191,2768,3248,0
11.806421560000217,7121,1776,0
11.809462309000082,4145,4080,0
11.813416320000215,11378,9058,0
11.817466272000274,13779,15123,0
11.821438189000219,10802,5473,8049
11.82452273700028,752,4753,0
11.827527542000098,0,15315,0
11.831493103999946,17524,11298,976
11.835517224000341,2304,3984,8274
11.839495253000223,5553,6993,0
11.842512930000339,5329,80,0
11.846501320000243,1840,4145,464
11.849499666000156,1184,1280,0
11.853531836000002,11570,2256,0
11.85655525500033,15395,368,0
11.86038941300012,368,8546,0
11.863440763000199,2848,2976,0
11.867421022000144,19316,288,0
11.870449177999944,160,1152,0
11.874433536000197,7345,5569,0
11.87775291600019,8834,2816,0
11.881412497000383,0,5457,0
11.884490480000295,5377,3744,0
11.888525422000384,17684,1136,0
11.892388211000252,704,6401,1888
11.895484171000135,13363,5489,1696
11.899455718000354,4273,3408,2672
11.903427919000023,3264,256,352
11.906530062999991,7489,7233,0
11.910447133000162,0,3792,4833
11.913504086000103,3840,1280,0
11.917531387000054,21237,7585,0
11.921470761000364,7249,4753,0
11.924473280000257,10354,7201,0
11.92852851500038,22117,2272,5121
11.932490432000122,3072,528,0
11.93543423500023,13411,1472,0
11.939408529000048,5473,1744,0
11.942557865000254,17508,1808,0
11.946522819000165,9906,0,2544
11.949523966000015,0,2320,0
11.953526463000344,11746,1072,0
11.95644886800028,19364,4865,0
11.96043126099994,9314,6593,0
11.963493003000167,7665,1728,0
11.967462305000026,24918,3328,0
11.971417556000233,4497,2656,0
11.974552813000173,14163,8498,0
11.978523380000297,8626,1376,3168
11.98241840000037,2000,1536,0
11.985535431000244,3728,2432,0
11.989499697000156,2176,4177,0
11.99252987700038,5681,16,0
11.99648545700029,9714,1296,288
11.999433182000303,10290,3616,0
12.003498462000152,30727,3152,304
12.00752297300005,3328,3952,1056
12.011451642000338,12483,4705,0
12.014493264000066,5153,5553,2480
12.018482509000023,3952,7313,0
12.021529610000016,6849,6769,0
12.025554924000062,14067,5521,3312
12.02940911900032,23957,816,0
12.032551814000271,24790,3120,0
12.036500996000086,23301,5905,0
12.040498969000055,2544,19092,0
12.04453041700026,23125,24149,3408
12.048473970000032,23221,5185,2416
12.05147237700021,768,0,0
12.055501669000023,17828,1904,2832
12.058426968000276,9938,7073,0
12.062420899000244,3808,1296,0
12.065776098000242,240,2064,0
12.069878306000192,3152,10242,0
12.07349509100004,8978,4097,2128
12.07652504700036,15187,1280,0
12.080521288,2304,3776,2912
12.0844661430001,7329,7233,704
12.088417340999968,8258,1456,11186
12.091422356000294,6961,3040,0
12.095415968999987,4193,1568,0
12.098437965000358,5889,800,0
12.102410828000302,0,1264,816
12.105439791000208,2688,5777,80
12.10942601600027,1280,1024,768
12.112445948000186,1104,688,0
12.116426066000258,1136,8338,0
12.120412202000352,14947,7569,14339
12.123412023000128,8049,8546,0
12.12742450199994,0,10402,2928
12.131410030000097,1840,1712,0
12.134529432000363,7505,4064,0
12.138496139000381,17956,3776,0
12.141487847000008,0,14083,0
12.144517184000051,480,224,0
12.148507718000019,2656,6753,432
12.152516960999947,4769,6145,3360
12.156495393000114,32503,1312,0
12.159432355000263,5281,2464,0
12.163408527000229,7345,7249,1648
12.16743128500002,13427,2400,4401
12.170461254000202,23525,10146,0
12.17449572400028,8338,6929,3840
12.178473587000099,12419,6177,0
12.181440399000167,0,1056,0
12.185415193000154,224,608,0
12.188435721000133,5937,4449,0
12.192406393000056,5889,6801,1200
12.196388514000319,12274,1760,2816
12.199446779000027,0,2304,144
12.202462778000154,0,4833,0
12.206449184000121,9714,6145,3520
12.210419783000361,12082,224,0
12.213437655000234,0,1840,0
12.217410909000137,6145,9890,0
12.220444904000033,0,3200,2560
12.224409040999944,1776,4769,6673
12.228393274000155,416,7073,11874
12.231452876000276,4657,864,544
12.235400490000302,6145,1504,0
12.23844278200022,0,2816,0
12.242431117000251,2960,5169,0
12.245449930000177,7761,1792,0
12.249421627000174,16916,768,0
12.253410539000015,12659,4609,2304
12.2564261120001,18356,9570,0
12.260410094000235,864,12819,7169
12.264414125000258,2576,35336,0
12.267475226999977,5377,2640,0
12.271400497000286,12339,3840,0
12.27443361099995,6529,9714,0
12.278487625000253,2512,6897,5905
12.28246639200006,27350,288,4577
12.28642171599995,7441,1872,1008
12.289461232000122,16,5889,1360
12.293463742000313,17572,10674,0
12.29645617999995,0,3616,0
12.300423782000053,0,6929,4097
12.303459727000245,9490,6641,0
12.307433353000306,12547,2928,0
12.311410710000018,3104,2928,0
12.314454690000275,3840,8081,288
12.318425120000029,4000,5905,0
12.322402581000006,16,4016,8850
12.325408092000089,2032,2752,0
12.329408175000026,0,1104,2576
12.332424947000163,0,12403,0
12.335460037000303,5793,2480,0
12.339440057000047,11986,7089,96
12.343421198000215,10594,4673,0
12.347402835000139,1232,3840,544
12.350449576000301,4097,3328,1728
12.354412662999948,6641,32,0
12.357483837000018,624,9394,5985
12.361462229000153,3312,7233,0
12.364485812000112,5377,624,0
12.368466699000237,15619,9314,0
12.371488090000184,1808,2816,0
12.375453762000234,3696,27270,0
12.37942500500003,30071,2816,0
12.382492735000142,14595,6881,0
12.386445688000094,16,11698,0
12.390410310000334,7057,3728,6913
12.394407636000324,24373,7969,9474
12.397481839000193,10754,1024,0
12.401449258999946,4721,1056,2816
12.405453923000096,3872,1744,1648
12.408475441000064,256,3824,0
12.412464166000063,7425,3568,0
12.41544517200009,0,3696,0
12.419435459999931,3552,2032,2016
12.422432130000288,1472,6913,0
12.426497314000244,4817,2048,3840
12.430450784000186,0,13235,1792
12.43348684800003,368,768,0
12.437420139000096,3120,2000,0
12.440474281000206,1296,3440,0
12.444455331999961,1792,464,816
12.447488238999995,12595,3232,0
12.451527423000243,10242,5457,2720
12.45548331100008,12082,2640,6673
12.459471775000111,19524,17268,784
12.463426227000127,7457,1264,13811
12.467420227000275,12114,14707,8866
12.4704824800001,9810,7265,0
12.474425990000327,5025,7169,1136
12.478401959000166,48,752,0
12.481416546000219,0,3488,0
12.484413962999952,768,4513,0
12.48847547000014,6049,1136,2992
12.492450256000211,11618,1024,0
12.495480466000117,1456,1120,0
12.499448401000336,13379,11010,4865
12.503421900000376,0,672,4449
12.506538467000155,24726,2208,5969
12.510509787000046,21317,5425,0
12.514489994000087,14931,640,0
12.518481794000309,12451,2192,2608
12.521439438000016,240,3248,0
12.52540520399998,3296,1616,0
12.528449251999973,12547,2736,0
12.532401236000169,1840,720,0
12.535409679000168,560,2400,0
12.539380219000122,3344,4064,0
12.542422318000263,224,816,0
12.545444464999946,416,3424,0
12.549410277000334,0,6401,0
12.552408189000289,9682,5889,0
12.556384880000223,2928,8546,0
12.559474052000041,4129,10210,0
12.563451270000314,0,848,448
12.566465418000007,0,688,816
12.570455493000281,11794,1184,0
12.573471444000006,13363,7057,0
12.577457918000164,27510,3024,0
12.581399994000094,8450,3872,1456
12.584757755000282,17412,5745,0
12.588522651999938,23381,2304,7537
12.592422034000265,4337,1056,0
12.59646515400027,12387,1280,3840
12.599524638000275,7585,1200,5121
12.603533993000383,2816,3232,0
12.60749418100022,4929,10658,160
12.61140137800021,624,1392,2208
12.614506016000178,7009,9122,0
12.618498455000008,6145,7361,2032
12.621465042000182,4977,11634,0
12.625505760000124,2864,15347,0
12.629495417000271,3408,3664,0
12.632508129000144,9170,1968,0
12.636491160000332,7937,1472,0
12.640485979000005,14339,2272,2336
12.643501874000322,0,3008,0
12.646484414000042,8033,9954,0
12.650489006000043,17396,8450,0
12.65447249700037,256,11490,3376
12.657515306000278,1680,1792,0
12.66142741700014,4353,2832,0
12.664498454000295,0,1168,0
12.668517431000055,2656,11010,2304
12.672498038999947,6097,1184,1136
12.675527873000192,12178,1248,0
12.67952976200013,18724,8033,3184
12.683519524000076,2160,6449,6193
12.687471686000208,5185,2816,0
12.69051090100038,0,4273,0
12.693397358000311,6609,6513,0
12.697440970000116,6497,9186,0
12.700426852999954,0,10642,0
12.704402004000258,0,12451,0
12.707460835000347,11522,512,0
12.711441146000197,3632,5889,608
12.715469237999969,22821,1760,0
12.718442587000027,400,2960,0
12.722448520999933,5041,13283,7649
12.726490405000277,15347,8962,0
12.729504127000382,0,3936,0
12.732412355000179,0,1104,0
12.73642574600035,1856,1792,144
12.74039698100023,2832,3920,560
12.743429287000254,1872,5425,0
12.747386602000006,9186,2256,0
12.750433660999988,1520,1376,0
12.754450860000361,9042,4593,0
12.757451744000264,13987,3600,0
12.761431092000294,5425,1488,0
12.764433497000027,0,7729,128
12.768416276000153,7425,11730,0
12.771458235999944,1280,5073,0
12.77540673500016,9730,10418,4273
12.77941914100029,12146,1792,0
12.783403761000045,12018,14003,0
12.786427493000247,0,7649,2432
12.789437970000108,0,1840,0
12.793424359000255,2048,2832,0
12.797498306000307,14387,14835,0
12.80052142600016,14819,6993,0
12.804524498000319,10402,8738,3264
12.80864549700027,14627,1056,1616
12.812446237000131,7185,2688,0
12.815463373000057,304,2768,0
12.81946686900028,3584,2048,0
12.822432886000115,256,5889,0
12.826404389000345,1120,1376,0
12.829437377999966,5889,3888,0
12.833417318000102,4801,944,0
12.836499553000067,10162,1280,0
12.840505140999994,160,3680,0
12.84441034800011,13219,4417,3600
12.847403602000213,0,3328,0
12.850396064000051,544,3840,0
12.854395494000073,3808,176,912
12.857450469000014,5745,1568,0
12.861445550000099,1584,5089,0
12.865448569000364,3936,1392,1280
12.86845903800031,0,1280,0
12.872429340000053,8578,1872,2544
12.87543929200001,3024,1792,0
12.87945621300014,18900,10706,0
12.883469297000374,8946,432,96
12.88646036900036,1584,4433,0
12.890481812999951,13235,12050,0
12.894439560000137,672,2096,14067
12.897462112000085,3664,6785,0
12.901419875000101,3584,7425,0
12.904481187000329,8386,4961,0
12.908417763000216,1760,1680,0
12.91236671300021,2080,5985,3056
12.915444222000133,9874,3248,1648
12.919430829000248,16019,13523,0
12.923845658000118,6145,9570,3840
12.92746480400001,7361,17492,8530
12.930482854000275,6881,9810,0
12.934428248000131,9762,2784,0
12.937462112000048,5265,3040,0
12.941430065000077,0,7409,848
12.944484037000166,816,7073,0
12.948435919000076,0,5841,0
12.951455326000087,6113,4097,0
12.955444786000044,3744,8674,0
12.958431477999966,0,3632,0
12.96148008299997,4449,3024,0
12.965477860000192,6449,3120,1984
12.969435091000378,2416,3840,1104
12.973437698999987,17332,784,736
12.977450647000296,10130,768,5537
12.980498815000374,528,7217,0
12.983486491000349,0,352,2272
12.987456742000177,10194,3120,0
12.991442032000123,18180,5937,4865
12.994474222000008,8562,3408,0
12.998478041999988,6481,3360,0
13.00247586200021,9426,2784,1792
13.00645053900007,19204,7905,3632
13.009471314000166,2192,5505,0
13.013467168000261,14259,21157,2816
13.017447529000037,5793,1264,0
13.020494710000094,8914,656,784
13.024453870000343,8017,2896,0
13.028447798000343,3616,6657,2064
13.031479337000292,13651,8450,0
13.03545059399994,0,6145,5377
13.038612239000031,5201,1392,0
13.042787402000158,0,6177,720
13.045655672000066,0,5553,0
13.04944404700018,4497,784,0
13.052463360000274,2048,3888,0
13.056441990000167,2704,3872,0
13.059469257000274,592,2672,0
13.063453827000103,1040,400,768
13.066454302000238,8738,4801,0
13.069473184000344,0,48,0
13.073423772000297,0,4849,0
13.076470875000268,9394,4625,3568
13.080442854000012,0,12226,0
13.083410685000217,480,1024,0
13.087402857000143,512,4449,1280
13.090461272000084,0,3520,960
13.09446002499999,10978,9842,1072
13.098466515000382,1712,22133,7825
13.102527912000369,6401,2224,2544
13.105517195000175,7969,3056,0
13.10942390800028,2912,6401,0
13.112456365000071,0,7489,0
13.116405810000288,4785,160,768
13.119402546999936,6241,448,0
13.123513180000373,5777,11394,0
13.126540720000321,3152,816,0
13.130513917000371,9410,3296,2032
13.134480440000061,0,4865,0
13.137517033000222,15571,2224,0
13.14144146300032,2416,1296,208
13.145485213000029,3744,3344,6097
13.148514988999978,11058,8097,0
13.152499854000325,1072,304,21589
13.15650344200003,112,1376,3888
13.159474459000194,608,912,0
13.163467917000162,1872,1296,592
13.166472657000213,7137,768,0
13.169472281000253,0,848,0
13.173439472000155,5009,3984,480
13.177438278999944,6913,9378,496
13.180469207999977,4305,3696,0
13.184434482000142,0,7057,0
13.187440469000194,1792,752,0
13.19140150300018,4353,9986,0
13.194430255000043,256,22693,0
13.198416891000306,26038,5217,1840
13.202408917999946,14755,2256,0
13.206397319000189,2816,3088,2608
13.21037122100006,3184,17396,13843
13.213429847000043,13395,23909,4785
13.21742120099998,3440,3360,3696
13.221416478000265,11250,8498,0
13.224425345000327,1024,1200,0
13.228412151000157,1248,6401,0
13.232404981999935,8994,8450,3456
13.235422070000368,5121,1200,0
13.239416989000347,5921,4097,1904
13.24341283700005,896,1072,4241
13.246424264000325,0,3040,8081
13.250411381000049,4401,5873,1696
13.254423721999956,16083,1968,112
13.25742948800007,256,1104,0
13.261440398000104,10834,14771,9682
13.265417697999965,10642,5233,10530
13.269397991999995,5217,3328,0
13.272420656000122,8818,1744,0
13.276423158999933,368,18228,0
13.279436410000017,4016,1264,0
13.283443430000261,2976,4129,0
13.286429791000046,0,1616,0
13.290391732999979,0,464,1360
13.293440787000236,17428,2864,0
13.297413734000202,15667,6449,3600
13.300448709000193,1776,0,0
13.30441042700022,8754,19620,0
13.308384304000356,9010,3600,0
13.311426375000337,2288,2032,3984
13.315414943000178,3328,6113,8097
13.319408589999966,19700,22021,0
13.32242354400023,2544,1056,0
13.326418926000315,20324,3408,1968
13.330372490000173,432,3600,0
13.334435910000138,1024,3632,1792
13.337503792000007,6177,7329,0
13.341467775000183,10034,1264,0
13.344464361000064,0,2960,1696
13.348497876000238,688,848,5585
13.352483375000247,4353,6145,1360
13.355505980000089,2816,5889,0
13.359451773000274,0,3040,0
13.362513006999961,1280,2976,1712
13.366498674000013,160,2048,5649
13.370490960000097,8306,1280,2304
13.374454410999988,15875,848,4321
13.37749868300034,6737,0,9218
13.38148005100038,1312,544,13907
13.384497960000317,0,848,0
13.38849411900037,4481,1008,7473
13.392461882000134,19156,3568,2736
13.396454818000166,10946,5617,1872
13.400477217000116,3792,8674,9410
13.403516330999992,27190,4353,8049
13.407508370999949,18868,5873,0
13.41142925200029,5889,5217,0
13.41446390100009,11986,1600,256
13.418494159000147,6641,2256,0
13.422417960000075,16131,11442,928
13.425507568000285,9954,3040,0
13.429490593000082,7457,22341,0
13.432509418000336,9538,3840,0
13.43645765500014,8818,2736,5105
13.440489599000102,9890,1616,5889
13.44443666899997,7137,12194,1568
13.448480087999997,17316,3552,0
13.451513485000305,15107,6673,176
13.455494746000113,10930,24838,0
13.45952035800019,19156,4945,624
13.46248722900009,6433,784,0
13.466505565000261,5889,4353,10162
13.470492752000155,5697,1072,6401
13.474449303000256,9538,1568,0
13.47751326000025,12819,5105,4609
13.481473328999982,0,11938,752
13.484489681000014,0,688,0
13.488474104000034,5041,5665,0
13.491491918000065,4513,3280,0
13.495439937000356,880,1232,2048
13.498518222000257,6929,1168,0
13.502491885000381,0,3744,0
13.505479627000113,9586,1760,0
13.509461557000122,944,544,0
13.513435738000226,21941,1904,3056
13.516426590000265,2304,18436,0
13.520443120999971,0,10962,14691
13.524441820999982,37929,11090,7937
13.527430952000032,2896,912,0
13.531437006000033,1376,2448,0
13.53446471999996,6369,1872,0
13.538398838000376,9330,352,0
13.541475815000013,3776,2816,0
13.545426215000134,96,672,0
13.548425507000047,6577,8113,0
13.552416730000004,784,8690,0
13.555426936999993,15411,1520,0
13.559421332000056,18004,3616,176
13.563439257000027,2304,9682,3232
13.567429045000154,23765,1536,2224
13.571413805000248,3296,4945,12018
13.574389499000063,19620,2304,0
13.578433472000143,0,416,2464
13.581438955000067,5713,1056,0
13.585418010000012,13235,720,5713
13.589416778000214,20420,7185,1440
13.59343600000011,12066,6481,1184
13.597422596000342,16564,2928,6913
13.60043092900014,688,1024,3232
13.60439909600018,7345,8450,0
13.607465457000217,16,1568,2288
13.61181361600029,3168,10066,1792
13.615838456000347,5793,3616,0
13.619494427000063,4401,7601,1440
13.622515909999947,10802,4977,0
13.626489225000114,9986,4289,0
13.629501628000071,1248,1120,0
13.63345997200031,0,5297,0
13.63647797700014,368,15219,6161
13.640429770000082,2144,5585,6241
13.64447665500029,16035,4369,0
13.647503122000217,2672,1008,0
13.651478107000003,336,4529,10658
13.655473325999992,16067,13811,5617
13.659485851000227,23253,2480,0
13.6634766090001,2560,15315,7265
13.667506735000188,18964,12627,13043
13.67145500200013,9554,4513,1040
13.674482573000205,24918,2672,3856
13.678490625999984,6065,22021,0
13.681485890000204,0,3936,0
13.685472403999938,12146,10578,1520
13.689497815000323,3920,10530,0
13.692448593000336,480,3072,768
13.696406837000268,9170,16131,0
13.70038733499996,176,4673,3440
13.703430622000269,6273,3152,0
13.707422235000195,0,1760,0
13.710479982000379,0,8658,8081
13.714470961000188,15619,1072,0
13.717512792999969,5345,3584,0
13.721481641000082,6961,6721,0
13.724511922000147,1712,2080,0
13.728474699000344,4641,3328,7473
13.732500081000126,11522,592,2256
13.736483410000346,14147,9810,0
13.74042263199999,22341,6753,27718
13.743467127000258,7793,608,0
13.747443258000203,30583,7889,0
13.75047493000011,5377,832,1696
13.754491666000376,6225,6177,0
13.75843943000018,20196,4113,0
13.761454163000053,6897,5137,0
13.76547891700011,11026,1248,0
13.769501849000335,12034,18708,7361
13.772446605000368,5281,2848,0
13.776496790000238,34824,2272,0
13.780445568000232,14963,6513,8049
13.783512215999963,1488,1168,320
13.787463125000158,21269,16756,0
13.791447499000242,6241,10322,0
13.795427800000198,19748,1792,800
13.798463267999978,880,1872,2816
13.802458202000253,2480,800,4577
13.805463030000283,0,5297,0
13.809424384000067,16,256,0
13.81246942100006,11986,2336,6369
13.81651659399995,16996,7153,0
13.819477400000324,0,6481,0
13.823382100000345,1792,2448,0
13.826500449000378,3824,7681,0
13.830507414000294,2080,4048,0
13.834415996000189,112,3616,3024
13.837490892000005,1216,1712,0
13.841467916000056,14595,2720,0
13.844456543999968,6769,1408,0
13.848420841000006,4865,0,0
13.851463040999988,2304,4577,0
13.855401302000246,144,1280,0
13.858456224000292,9234,1872,9682
13.862447900999996,0,11890,11938
13.86640584099996,14595,12915,0
13.87042942800008,19028,10194,10290
13.874405385000045,11602,2208,224
13.87746039600006,9986,11682,0
13.881413212000098,7185,272,0
13.884460481000133,1136,2592,0
13.888427433000288,28278,3328,0
13.892376839999997,3776,5953,7137
13.89546196900028,1280,10194,864
13.899486540999987,24325,4016,0
13.903426351000235,11554,3376,0
13.906399469000007,0,2144,0
13.909498823000376,8722,1056,0
13.913504032000219,15203,1328,0
13.91747959200029,28262,2048,0
13.920476839000003,6833,1024,0
13.924395990999983,6353,544,0
13.927500103000057,2208,1792,0
