time,emg1,emg2,emg3
0.004895458000191866,400,672,0
0.007896178000009968,144,1888,0
0.011883364999903279,3152,800,0
0.014907503999893379,960,2304,0
0.018927980000171374,1152,1968,0
0.021907621000082145,1088,896,0
0.024898779000068316,0,1440,0
0.02891067500013378,1136,4449,0
0.032831602999976894,2096,1872,0
0.03588982000019314,3360,2864,0
0.039844496000114304,3984,2048,0
0.04293589400003839,2304,2144,0
0.04594198499989943,0,1056,0
0.04992214599997169,1088,7681,0
0.05295561100001578,256,1200,0
0.056888770000114164,4305,5809,0
0.05994422799994936,5857,3184,0
0.06389791799983868,5377,4353,0
0.06694756900014909,0,1712,0
0.07093231499993635,1776,2048,0
0.07392220400015503,336,1696,0
0.07790275500019561,2784,1120,0
0.08095086599996648,2736,2416,0
0.08491426399996271,0,736,1280
0.08784994799998458,1168,1280,0
0.09188284899983046,496,1584,0
0.09491162199992687,816,2096,0
0.09920051300014165,240,1024,0
0.10217106800018882,1632,2192,0
0.1062438200001452,288,2016,0
0.10891204100016694,768,1696,0
0.11311973000010767,208,1888,0
0.11588589500024682,2576,2304,0
0.12001293200000873,2576,2272,0
0.12322856499986301,2768,2224,0
0.12620653700014373,0,944,0
0.13014933200020096,2592,3008,0
0.13322906600023998,512,2304,0
0.13715234200026316,5953,8626,0
0.14024668999991263,5233,2208,0
0.14417458400021133,400,4529,0
0.1473273930000687,0,976,0
0.1510963969999466,2048,1792,0
0.15408384700003808,0,2208,0
0.157204148999881,5137,2320,0
0.1611101809999127,5153,5889,0
0.1643154900002628,1120,2224,0
0.16814358100009485,5569,3072,0
0.17202367900017634,4241,2480,0
0.17515171600007307,1344,2784,0
0.1789681280001787,1632,1328,0
0.18200222799987387,2704,2464,0
0.1859596459999011,32,1072,0
0.18897675500011246,496,2304,0
0.19289624600014577,2192,1280,0
0.19610499700002038,4337,3104,0
0.2001923809998516,3280,1584,0
0.20321626800023296,1184,1536,0
0.20621941599983984,0,1424,0
0.21013629200024297,2080,4865,0
0.21321724600011294,0,1040,0
0.2171232720002081,4929,2816,0
0.22020979099988836,6161,3328,0
0.2241149410001526,816,2208,0
0.22710245300004317,0,544,0
0.2302362750001521,2320,2336,0
0.23406070100008947,4449,5025,0
0.23797827499993218,4849,2160,0
0.24124743999982456,4961,3584,0
0.244069847999981,160,880,0
0.24821608399997785,480,5777,0
0.2511703770001077,3248,1344,0
0.2552647640000032,3504,3792,0
0.25847552000004725,2192,2464,0
0.26225761600016995,4401,3072,0
0.2653684820002127,0,1280,0
0.2690000920001694,0,1808,0
0.27226020900025105,3344,1584,0
0.27612605600006646,1760,1680,0
0.27936032600018734,2320,3936,0
0.2831137910002326,688,1488,0
0.28634301800002504,112,1648,0
0.29025418299988814,4209,1888,0
0.2931832439999198,752,2304,0
0.2972354869998526,1360,1888,0
0.30038522099994225,4929,3008,0
0.304016903000047,784,1632,0
0.30719600500015076,96,1360,0
0.3110300799999095,6401,1536,0
0.3143653400002222,2000,3392,0
0.318072967000262,3792,2144,0
0.3212403190000259,4353,2592,0
0.32430654000017967,0,576,0
0.32825197200008915,0,1520,0
0.3312708120001844,2848,2112,0
0.3350288410001667,320,1200,0
0.33834348800019143,2800,4273,0
0.3421654270000545,3472,2256,0
0.3454143640001348,976,1600,0
0.34834538299992346,0,1088,0
0.3521501959999114,544,5809,0
0.3552920170000107,784,2256,0
0.35929453300013847,2400,1488,0
0.3623415689999092,1472,2656,0
0.3663148169998749,96,2048,0
0.36923568700012765,0,1808,0
0.3730329840000195,4433,1072,0
0.3763363080001909,3808,3504,0
0.380212426000071,3664,2544,0
0.38339674400003787,2320,2032,0
0.38725401400006376,256,1248,0
0.39037707299985414,3232,1488,0
0.3932207020002352,0,4433,0
0.39722859999983484,6145,6737,0
0.4003351310002472,5665,1552,0
0.4043604720000076,4753,5121,0
0.4072553099999823,0,2528,0
0.41114863700022397,2256,1648,0
0.41439843299986023,816,2400,0
0.41819873500026006,3856,1696,0
0.42126509900026576,2704,2208,0
0.42534872399983215,0,288,256
0.4282164430001103,0,1792,0
0.43131364500004565,4097,1840,0
0.4351604070002395,2464,2608,0
0.4384522420000394,2272,784,0
0.4421709550001651,4353,3232,0
0.4453038460001153,0,1936,0
0.4491393429998425,256,1024,0
0.45214176699983,3232,2000,0
0.45609752600012143,1536,2240,0
0.4592059619999418,1312,2224,0
0.46309001200006605,1376,5889,0
0.46618715300019176,0,1056,0
0.4700833160000002,2048,1968,0
0.47322190500017314,1168,1744,0
0.4770518780001112,2864,4753,0
0.4801227520001703,4865,1584,0
0.4839885490000597,656,1360,768
0.48700416300016514,0,1760,0
0.49093478600025264,2768,1376,0
0.4939238430001751,1216,3008,0
0.4980540840001595,4641,1792,0
0.5009112699999605,3504,2832,0
0.5048971699998219,304,5793,0
0.5081314230001226,432,928,0
0.5120393259999219,3520,1264,0
0.5151386850002382,768,1808,0
0.5188680720002594,2512,1328,0
0.5219002700000601,1648,1584,0
0.5259198019998621,0,1904,0
0.5290591950001726,2048,2960,0
0.5330448820000129,1184,2016,0
0.5362285619999057,3328,3088,0
0.5401846590002606,2640,2224,0
0.543119408000166,1008,1776,0
0.5471113970002079,624,1792,0
0.5500879020000866,3872,480,0
0.5540047469999081,112,1536,0
0.5572028139999929,4929,2160,0
0.5611305920001541,5057,2736,0
0.5642086030002247,0,1456,0
0.5671618760002275,0,928,0
0.5710039949999555,2448,1184,0
0.5742834470001981,0,2224,0
0.5772346379999362,3552,2448,0
0.5810745700000552,5457,4865,0
0.584369727000194,0,544,0
0.5881073909999941,320,1456,0
0.5913583159999689,3888,1296,0
0.5953109100000802,944,1440,0
0.5982986349999919,2784,1760,0
0.6021443519998684,4209,2144,0
0.6053238720000991,880,1264,0
0.6092178899998544,1344,1744,0
0.6123212789998433,2016,3488,0
0.6161607499998354,1328,1712,0
0.6193843750002088,1280,2240,0
0.623138304999884,768,1792,0
0.6261363889998393,96,1312,0
0.6302538509999067,1280,928,0
0.6332456730001468,2672,3040,0
0.6371642879998944,1696,1984,0
0.6401792289998411,5377,2800,0
0.6434609279999677,256,768,0
0.6471171240000331,2224,2448,0
0.6510540409999521,4577,1264,0
0.6543286270002682,768,3120,0
0.6580841810000493,4353,2992,0
0.6612433519999286,4529,2512,0
0.6644153329998517,0,880,0
0.6681803520000358,0,1456,0
0.6712539499999366,5121,2800,0
0.6744196640001974,0,1040,0
0.6781465240001125,5057,6753,0
0.681418309000037,2784,1760,0
0.6853682930000105,4113,3040,0
0.6881530209998346,272,736,0
0.6921744370001761,1248,2384,0
0.6954546400002073,2352,1328,0
0.6993497280000156,1776,5025,0
0.7032344449999073,1008,2160,0
0.7062250140002106,2736,2816,0
0.7102358820002337,1264,1056,0
0.7133093920001556,896,1568,0
0.7170749209999485,3168,1952,0
0.7203708860001825,2896,3072,0
0.723208816999886,112,752,0
0.7271977079999488,3952,4321,0
0.7312698670002646,4145,2064,0
0.7343017130001499,432,1520,0
0.7381696779998492,4545,2080,0
0.7411311690002549,5121,3600,0
0.7442786460001116,416,928,0
0.7481571009998333,368,4625,0
0.7512556980000227,3008,1696,0
0.7551978770002279,2144,5201,0
0.7583227019999867,2976,1888,0
0.7621743760000754,4417,3088,0
0.7652256430001216,0,992,0
0.7690561700001126,2032,1088,0
0.7720520799998667,3312,1504,0
0.7759975950002627,3024,2384,0
0.7790228590001789,2048,1056,0
0.7829470880001281,1280,1296,544
0.7859875130002365,0,1872,0
0.7899178020002182,2400,1840,0
0.7929003680001188,0,1280,0
0.7968736860002537,3104,1360,0
0.7999299640000572,3696,1936,0
0.8038851870001054,672,1504,0
0.8069057890002114,0,1280,0
0.8108719729998484,3328,1504,0
0.8138881690001654,3328,3072,0
0.8178745089999211,4865,1584,0
0.8209153030002199,3920,1568,0
0.8239466139998513,0,1376,0
0.8278915109999616,256,672,0
0.8309207219999735,2816,976,0
0.8348837620001177,912,1296,0
0.8379240150002261,6289,3504,0
0.8418735909999668,3952,1552,0
0.8449033100000634,336,0,0
0.8479011979998177,0,2816,0
0.8518971550001879,2336,1888,0
0.8549282849999145,464,2384,0
0.8588486869998633,3408,416,0
0.861936323000009,3184,2672,0
0.8658773580000343,256,1056,0
0.8689173900002061,1040,1120,0
0.8719194660002358,592,528,0
0.8758847019998939,4497,3024,0
0.8798524570001973,2528,2112,0
0.8829214070001399,2288,2416,0
0.8859394679998331,0,2272,0
0.8899017329999879,400,7841,0
0.8929458600000544,1120,2064,0
0.8968705370002681,3856,7457,0
0.8999289140001565,7249,3664,0
0.9040897069999119,0,5601,0
0.9072904310000922,256,1392,0
0.9110405999999784,4625,768,0
0.914148476000264,1008,2224,0
0.9179532869998184,2160,864,0
0.9211787429999276,4801,1328,0
0.9243097290000151,0,1440,0
0.9279463030002262,0,3616,0
0.9309312959999261,2720,1920,0
0.9349196849998407,464,2576,0
0.9381949779999559,5281,1616,0
0.9421466530002363,3072,2368,0
0.9449719859999277,0,1248,0
0.9479465069998696,0,816,0
0.9519045609999921,4497,1824,0
0.9549541599999429,736,1568,0
0.958934021999994,2368,2272,0
0.9619569120000051,1136,1616,0
0.965921974000139,16,2064,0
0.9688814030000685,784,4000,0
0.9729094560002522,3280,2112,0
0.9759498690000328,1840,2096,0
0.9799322799999572,5473,1648,0
0.9829527629999575,1456,1280,0
0.9869173160000173,0,1760,0
0.9899167980001948,3072,1440,0
0.9939188439998361,272,2640,0
0.9969511969998166,4529,5457,0
1.0008738189999349,5793,2576,0
1.00389427600021,1504,2256,0
1.007846764000078,144,1168,0
1.0109232240001802,2816,1632,0
1.0148956389998602,1360,1568,0
1.0179549720000978,2400,3840,0
1.0219181749998825,2304,1712,0
1.024909283999932,96,928,0
1.0279521600000407,512,848,0
1.0319337569999334,1024,1984,0
1.0349198829999295,752,2416,0
1.0389332949998789,2928,1520,0
1.041939242999888,1504,2256,0
1.045901732999937,0,4353,0
1.0489444979998552,160,1152,0
1.0532245330000478,3328,1456,0
1.056245644000228,1888,768,0
1.0602315989999624,3328,1776,0
1.0632045970000945,816,2464,0
1.0671946820002631,560,1504,0
1.070241734999854,3328,2560,0
1.0741820879998158,176,2096,0
1.0772441799999797,4305,3840,0
1.0811814950002372,5425,1904,0
1.0841843309999604,864,1904,0
1.087155889999849,288,832,0
1.0911891659998219,5745,3680,0
1.0942387790000794,64,2512,0
1.0979589759999726,4321,1952,0
1.1012411010001415,3360,2192,0
1.105257617999996,320,5969,0
1.1081737009999415,1024,1648,0
1.1122297179999805,1424,7505,0
1.1153520550001303,32,2544,0
1.1191603219999706,2592,1824,0
1.1223259220000728,1280,1424,0
1.126299863999975,0,2368,0
1.1293734290002249,1264,1168,0
1.1331847540000126,2224,2240,0
1.1362423030000173,2288,2176,0
1.1401700450001044,3328,1920,0
1.1432850910000525,336,1248,0
1.147117931000139,0,1392,0
1.1502445440000884,8274,2736,0
1.1543296720001308,1056,3088,0
1.1574022330000844,2896,2304,0
1.1611780339999314,5841,2512,0
1.1643801489999532,0,1376,0
1.1673312030002307,80,1392,0
1.1713837570000578,1648,1248,0
1.174427962000209,768,2256,0
1.1783529280000948,4881,2672,0
1.1813030570001501,2144,1808,0
1.1853674690000844,0,5985,0
1.1883919560000322,16,848,0
1.1914268999998967,2656,992,0
1.1952459970002565,1024,912,0
1.1984420250000767,4353,2848,0
1.2022532760001923,3216,1248,0
1.2053782160000992,784,1296,0
1.2093460529999902,832,1280,0
1.212324912999975,1728,2240,0
1.21616609900002,2864,2416,0
1.2194521880001048,3984,2800,0
1.2232297700002164,1648,6945,96
1.226291258999936,0,1280,0
1.2302608830000281,3488,1056,0
1.2332934850001038,1024,1248,0
1.2371842830002606,3584,1424,0
1.2403017470001032,6097,1616,0
1.2443600050000896,5649,3392,0
1.2473992909999652,0,416,0
1.2511857459999192,2480,1792,0
1.2542281430000912,256,1888,0
1.258289047999824,4817,1264,0
1.2614147849999426,4016,1792,0
1.2653255119998903,128,1760,0
1.2682034560002649,0,1792,0
1.2714686909998818,3328,2800,0
1.2752761350002402,2816,2912,0
1.279255848000048,3536,1520,0
1.282400270999915,1712,2592,0
1.286173387999952,336,1792,0
1.2893802049998158,2048,2512,0
1.2932683859999088,1280,1600,0
1.2964072039999337,2192,1744,0
1.3003324900000734,2352,2336,0
1.3032071960001304,0,1856,0
1.3062038010002652,0,752,0
1.3099314529999901,768,1504,0
1.3129782760001945,1904,2496,0
1.3168958890000795,5521,2208,0
1.319942717000231,4801,1536,0
1.3239411989998189,480,1584,0
1.3272331749999466,0,1600,0
1.330236412999966,3568,1008,0
1.333941975000016,4641,3840,0
1.338092725000024,6209,2912,0
1.3412181819999205,4785,2016,0
1.344195482000032,0,512,0
1.3471750090002388,0,928,0
1.351136550999854,6913,4080,0
1.3551522799998565,1248,1840,0
1.358227455999895,4113,2720,0
1.3619941430001745,3120,3376,0
1.365240506000191,0,1056,0
1.368329157000062,704,1424,0
1.3724423769999703,1792,5489,0
1.3754824339998777,208,1488,0
1.3794900699999744,3792,1008,0
1.3823304319998897,2480,1584,0
1.386373421999906,480,5121,0
1.3894862610000018,1184,1280,0
1.3933463789999223,880,5409,0
1.396471001000009,944,1376,0
1.4003735420001249,3328,1136,0
1.4033062250000512,432,1600,0
1.4064913960000922,0,720,0
1.4103707320000467,5809,2608,0
1.4140916060000563,1696,2144,0
1.4173074700001962,5585,2304,0
1.4212070670000685,5153,1728,0
1.42427453900018,0,1696,0
1.4273120430002564,432,976,0
1.43133924499989,1696,1360,0
1.4342991879998408,256,2304,0
1.4383707350002624,5393,3376,0
1.441473803000008,3152,1792,0
1.4453904400002102,48,1616,0
1.4482742270001836,464,1696,0
1.4521241990000817,2688,2048,0
1.4555313050000223,1856,2256,0
1.4593556810000337,3600,1648,0
1.4623274619998483,800,1856,0
1.4661986820001403,336,1280,0
1.46941466699991,1856,1280,0
1.473190134000106,2304,2000,0
1.4764518110000608,1280,1488,0
1.4803917240001283,2704,2624,0
1.4833668659998693,384,1392,0
1.486472907999996,0,608,0
1.4903934270000718,272,4353,0
1.493488759000229,768,1392,0
1.4973783310001636,5393,1792,0
1.5004658450002353,5153,2048,0
1.5043099200001961,0,5073,0
1.5073780550001175,0,1088,0
1.510451903000103,4145,2320,0
1.514392367000255,2864,4289,0
1.5181674750001548,5425,2080,0
1.5213959080001587,3840,1120,0
1.5244866550001461,0,1280,0
1.5283576689998881,32,1264,0
1.5312723460001507,3392,1056,0
1.5352339760001996,0,1280,0
1.538433434000126,4209,2992,0
1.5421251160000793,1936,976,0
1.5452154320000773,2544,2464,0
1.5491957879999063,1440,1792,0
1.552300323000054,4465,2304,0
1.5563354760001857,1392,1568,0
1.5594350000001214,2576,1888,0
1.5631143410000732,768,1360,0
1.5660877290001736,0,528,0
1.5692097460000696,1024,1280,0
1.573380312000154,544,6081,0
1.5764375580001797,1872,1568,0
1.5802430930002629,4449,8370,0
1.583362373,0,1904,0
1.5864318310000272,0,976,0
1.5902499909998369,1536,4689,0
1.5934303889998773,2016,2304,0
1.5972406649998447,7217,3344,0
1.6010170849999668,5601,1904,0
1.6041634090001935,2144,2784,0
1.6071799810001721,176,1616,0
1.6110597239999151,6321,2640,0
1.614110096999866,336,1712,0
1.6180238679999093,4897,3392,0
1.6219272429998455,2576,1664,0
1.6252611929999148,0,2048,0
1.6282759800001259,0,1792,0
1.6321428520000154,3872,1504,0
1.6350397609999163,0,1840,0
1.6382503579998229,3264,1872,0
1.642237319999822,6625,3024,0
1.6451513329998306,0,784,0
1.6493150830001468,1872,1264,0
1.652254431000074,1456,1392,0
1.6562375540001995,720,1344,0
1.6592970760002572,2560,1264,0
1.6632417840000926,1056,2144,0
1.6662827430000107,512,2000,0
1.6702583669998603,3216,688,0
1.673259980000239,1056,2352,0
1.6772681400002512,5137,2464,0
1.6803083830000105,4321,2240,0
1.6841170060001787,752,1792,1792
1.6873954050001885,0,1792,0
1.6913266569999905,3088,1056,0
1.6943873499999427,0,800,0
1.6981527779998942,4048,2016,0
1.7012255399999958,3280,1024,0
1.7051349130001654,304,1648,0
1.7082425339999645,528,1744,0
1.712134682999931,3616,1056,0
1.7154613829998198,2032,2800,0
1.7192755760002,5249,1616,0
1.7222320159999072,1568,1280,0
1.7255364480001845,64,1568,0
1.7294017519998306,3728,1792,0
1.733317819000149,2304,1840,0
1.7363126630002625,3184,2384,0
1.7402570700000979,1744,720,0
1.74341827499984,2608,2368,0
1.7472840549999091,448,1360,0
1.7502781900002446,2816,1280,0
1.7543076689998998,1328,1760,0
1.7574254460000702,3664,1584,0
1.7613491329998396,6305,1904,0
1.7643927240001176,288,1280,0
1.7681611890002387,144,1744,0
1.771416783999939,3152,1024,0
1.7744917979998718,0,1024,0
1.7783823190002295,6193,6673,0
1.781333510999957,3280,1984,0
1.7854270200000428,4064,3760,0
1.7884619750002457,0,1952,0
1.7921678910001901,2816,1280,0
1.795353987999988,240,1168,0
1.7991596020001452,2048,1040,0
1.8023149549999289,1792,1776,0
1.806278243000179,0,544,0
1.809378809000009,3760,2096,0
1.813304263000191,2784,2816,0
1.8162974150000082,3136,2544,0
1.8193299370000204,912,912,0
1.823228520000157,3360,3328,0
1.8264528449999489,0,1408,0
1.8301234800001112,0,1280,0
1.8334259809998912,2320,2208,0
1.8371765050001159,2896,1952,0
1.8403992459998335,3552,1648,0
1.843475183999999,0,992,0
1.8471201629999996,0,7105,0
1.85029066900006,2320,1888,0
1.8543943280001258,208,1808,0
1.857444907000172,3792,2720,0
1.8612625959999605,6433,2272,0
1.8644465540000965,512,1056,0
1.8673524480000196,0,880,0
1.871282998999959,2048,7169,0
1.8743671380002525,0,1456,0
1.8781836749999457,5041,1296,0
1.8813442499999837,3488,1440,0
1.8850311119999787,0,1056,0
1.888285924000229,2192,1984,0
1.8921217590000197,3120,2448,0
1.895400349999818,1392,1616,0
1.899029222000081,2656,1744,0
1.9020880269999907,1376,2112,0
1.9051589089999652,0,2128,0
1.9090314190002573,5297,2832,0
1.9129303929998969,3104,1936,0
1.916001963999861,4193,3936,0
1.9202513039999758,1232,1312,0
1.92325288200027,1824,2176,0
1.9262973569998394,0,1280,0
1.9302826070002084,6145,3408,0
1.9342409050000242,1776,1392,0
1.9371688720002567,5473,2816,0
1.9412636659999407,4929,2304,0
1.9442849080000997,1792,2144,0
1.9482129070001974,256,1744,0
1.9512495270000727,3504,1600,0
1.9552452050002103,736,2048,0
1.9581676210000296,5009,2976,0
1.9622042430000874,2464,2816,0
1.9653049560001818,2080,1840,0
1.968161334999877,0,2272,0
1.9721738170001117,7425,4129,0
1.9752966229998492,608,2224,0
1.9792313409998314,4753,2784,0
1.9830681240000558,1456,2096,0
1.9862726310002472,2208,2096,0
1.990218982999977,592,1280,0
1.9931848940000236,4097,2416,0
1.9971529320000627,2096,1456,0
2.000333936000061,2960,2320,0
2.0043012370001634,1520,1872,0
2.007508856000186,864,1712,0
2.0113421000000926,3328,1616,0
2.0142836370000623,816,1616,0
2.0181760260002193,3088,1024,0
2.021309984000254,4945,2336,0
2.025243254000088,144,1088,0
2.0282855320001545,848,1808,0
2.0322073440001986,3120,1632,0
2.0354708380000375,1760,2512,0
2.0393294250002327,4865,1264,0
2.0423286579998603,2112,1600,0
2.046322530999987,432,1104,0
2.0494090339998365,1152,944,0
2.0533360140002515,1840,2960,0
2.0563968110000133,2336,2304,0
2.060316506000163,2576,1808,0
2.063435151000249,320,2256,0
2.0663039340001887,0,416,0
2.0703321519999918,0,1296,0
2.073414773999957,1648,1280,0
2.077318373000253,1312,2160,0
2.080308178999985,5121,2016,0
2.0841830270001083,416,2352,0
2.087314643999889,352,2016,0
2.091364653000255,3760,1264,0
2.094413702000111,112,1088,0
2.0983459849999235,3072,1680,0
2.1014237370000046,5377,2848,0
2.10523745699993,416,1568,0
2.108284208999976,1792,1824,0
2.1122330240000338,3328,2048,0
2.1154276450001817,1584,1280,0
2.1192285800002537,3792,512,0
2.1223004799999217,1488,1328,0
2.1254499000001488,0,752,0
2.1293358689999877,4785,2896,0
2.1323586540001997,5585,2528,0
2.136328277999837,3520,3408,0
2.1401461700002073,1712,1584,0
2.143444572000135,1792,2192,0
2.146506011999918,112,656,0
2.150428551999994,5425,4465,0
2.153463560000091,512,1952,0
2.1572745600001326,4305,2544,0
2.1613351669998337,5025,1792,0
2.1644226070002333,2096,2144,0
2.167325077999976,0,1488,0
2.171240968999882,1424,2080,0
2.174324084000091,672,2400,0
2.1782236750000266,3296,864,0
2.1812937099998635,4577,2592,0
2.1852122049999707,0,256,1120
2.188262696000038,0,1552,0
2.1920918559999336,4737,1968,0
2.1951603060001617,304,1520,0
2.199034691000179,3520,2144,0
2.202064703999895,4097,2064,0
2.2050906899999063,0,1520,0
2.209015084999919,1024,6257,0
2.2121876090000114,1776,1568,0
2.216196441000193,4705,4257,0
2.2193513410002197,2240,848,0
2.2230202159998953,1024,4641,0
2.2262818359999983,192,688,0
2.230280935999872,464,288,0
2.233047209000233,2416,1888,0
2.237278915999923,1360,2384,0
2.240018828999837,3680,1872,0
2.244187601000249,1600,2016,0
2.2472600679998322,0,1280,0
2.251246731000265,1824,1280,0
2.2542955560002156,1296,2320,0
2.258287685000141,4961,1024,0
2.261303176000183,4048,1536,0
2.265193959000044,416,1376,0
2.268217428999833,0,1024,0
2.272182834999967,2192,1648,0
2.2753602650000175,2080,2976,0
2.279347370999858,2512,2064,0
2.282270014000005,2816,1760,0
2.2855153489999793,0,768,0
2.2892131620001237,0,2560,0
2.2924711700002263,3664,2576,0
2.296387199000037,720,1216,0
2.2993406139999024,2592,1536,0
2.3033924189999198,3440,2336,0
2.306434710999838,2048,976,0
2.309506147999855,0,800,0
2.3131911539999237,1200,2672,0
2.316526520000025,2304,2480,0
2.320417910999822,1984,6401,0
2.323552684999868,976,1760,0
2.3272652340001514,0,4977,0
2.3303150749998167,3328,2000,0
2.3334162659998583,0,1760,0
2.3374161319998166,5473,4273,0
2.341365147000033,6961,2976,0
2.3444608149998203,1968,2256,0
2.3481234569999287,352,1808,0
2.3512153299998317,6193,2848,0
2.3551078589998724,912,2400,0
2.358222004000254,5425,3408,0
2.3620977430000494,3984,1584,0
2.365250262000245,1200,768,0
2.3682200030002605,0,496,0
2.3721666699998423,3328,1424,0
2.375523965999946,288,656,0
2.3792539169999145,3632,2608,0
2.3823485530001562,2256,2304,0
2.385490731000118,48,768,0
2.3893024939998213,2320,3344,0
2.3932081090001702,2928,1664,0
2.396294054000009,3264,3440,0
2.4002245669998956,672,1776,0
2.4034782530002303,3232,2816,0
2.4064986779999344,0,752,0
2.4103861960002178,2816,1552,0
2.413488862000122,2304,752,0
2.4172317590000603,2608,3152,0
2.4203684280000743,3424,1792,0
2.4242793419998634,1712,2080,0
2.4273370380001325,0,1728,0
2.431259708000198,3280,1744,0
2.4344497520000914,800,1536,0
2.438344597000196,4913,1616,0
2.4414978680001695,5377,1728,0
2.4453786899998704,128,592,0
2.4483567440001934,1520,3072,0
2.452129037999839,4609,976,0
2.455367579000267,2144,2352,0
2.4592864900000677,3504,1312,0
2.4622112140000354,3104,2400,0
2.467982484999993,1264,1072,0
2.4692862380002225,1632,1232,0
2.47317850599984,2768,1680,0
2.4762674019998485,2304,1024,0
2.4801704520000385,4273,2320,0
2.4833264270000655,1376,2208,0
2.486987008000142,0,256,0
2.490100717000132,2960,1040,0
2.493983565000235,656,1680,0
2.4969867569998314,4449,2768,0
2.500977973999852,5393,2128,0
2.5039693909998277,304,1056,0
2.507927784000003,144,1328,0
2.510988061000262,6401,2512,0
2.5140061659999446,848,2080,0
2.517976826999984,3840,2160,0
2.521946355000182,4353,1840,0
2.524954552000054,800,1888,0
2.5280538199999683,0,1232,0
2.5319999190001,1712,1136,0
2.535058453000147,112,1472,0
2.538995424999939,3552,1792,0
2.5419965290002438,1840,2160,0
2.5459841589999996,0,800,0
2.5490061680002327,1040,1936,0
2.5529592050002066,2576,1536,0
2.556029075999959,2304,2496,0
2.5600052469999355,1712,2144,0
2.563025965000179,912,1824,0
2.5660033819999626,0,1184,0
2.5699748970000655,480,5105,0
2.5730652080001164,1776,1968,0
2.577036935000251,4561,6577,0
2.57993433799993,4497,1904,0
2.583931539999867,5393,4353,0
2.5874063169999317,0,624,0
2.591226205000112,3440,1440,0
2.5943345680002494,160,1424,0
2.598251707000145,4881,1824,0
2.601331629000015,3840,1936,0
2.6053008769999906,0,1344,0
2.608265860999836,1584,1792,0
2.6120993770000496,3792,1024,0
2.6152692890000253,960,2128,0
2.619166739999855,4353,2096,0
2.6222173649998695,1568,2304,0
2.62531540100008,0,1104,0
2.629243600999871,480,4257,0
2.6322457910000594,1792,1232,0
2.6362379570000485,2368,5601,0
2.639319559999876,2464,1104,0
2.643296171000202,4016,2576,0
2.6463501610001003,176,1024,0
2.650347810999847,6657,4080,0
2.653354593000131,720,1776,0
2.65715970500014,5937,3136,0
2.6602152430000388,4513,864,0
2.6640886380000666,3840,2768,0
2.667114564000258,0,1280,0
2.6710327519999737,4449,1520,0
2.6740354540002045,0,2304,0
2.677988755000115,5153,2160,0
2.680999045000135,5313,2304,0
2.684044821000043,336,432,0
2.6880499819999386,2928,2352,0
2.691964293000183,3312,3120,0
2.695241252999949,2304,2864,0
2.6989756080001825,3808,1184,0
2.7022493330000543,2416,2000,0
2.7063176900001054,64,1200,0
2.7093360140002005,1760,1824,0
2.7133128710001984,3504,1776,0
2.7162749350000013,3264,2528,0
2.7200933449998956,1888,2048,0
2.723074034000092,528,480,0
2.7263469590002387,352,976,0
2.7301503859998775,1264,4961,0
2.733210821999819,1024,1856,0
2.737183264000123,4433,2304,0
2.7411322900002233,4337,1280,0
2.744221841000126,1264,2448,0
2.7473197600002095,0,1136,0
2.7512687210000877,256,1424,0
2.7543237979998594,768,992,0
2.7582392630001777,5201,1792,0
2.761330120999901,4641,1632,0
2.7651114000000234,0,1280,0
2.7682952310001383,1568,2400,0
2.7721504030000688,2768,944,0
2.7753713890001563,1936,3184,1040
2.7792628679999325,5857,768,0
2.782372262000081,2464,1776,0
2.7861848669999745,0,1440,0
2.789198721000048,1952,2496,0
2.7930864559998554,1552,1872,0
2.7961463020001247,2016,1536,0
2.7999961919999805,832,1408,0
2.8031875679998848,1280,1824,0
2.8063388119999217,0,400,0
2.8103061619999608,800,6161,0
2.813267468000049,2048,2048,0
2.8172577650002495,2864,1776,0
2.820306391000031,4785,1792,0
2.824047888000223,624,4145,0
2.827301187000103,0,1040,0
2.831192301000101,2048,2720,0
2.834086619000118,0,1888,0
2.837293246000172,3120,2064,0
2.841209271000025,6961,2800,0
2.844068059000165,0,1120,0
2.848254372000156,0,1296,0
2.8513520790002076,5121,1728,0
2.855308785000034,800,2304,0
2.858416896000108,3504,2016,0
2.862212503000137,3232,1136,0
2.8655190979998224,1056,1232,0
2.8686180909999166,0,1328,0
2.8723106200000075,8818,2816,0
2.8763617720001093,1552,1600,0
2.879533760999948,3680,2480,0
2.883298599000227,1328,1040,0
2.886462066000149,0,1072,0
2.889552318999904,1136,1376,0
2.893265566000082,1904,5681,0
2.896415781000087,2048,1168,0
2.9002907750000304,4225,2192,0
2.904342202999942,1360,1136,0
2.907360336000238,0,608,0
2.910381536999921,4145,1744,0
2.914236738999989,96,2816,0
2.917437224999958,4865,2352,0
2.92127243799996,5073,2352,0
2.9244976610002595,0,1616,0
2.9274995300002047,0,1168,0
2.9313017439999385,1488,1792,0
2.9343062090001695,64,2032,0
2.9383926370001063,3136,2656,0
2.9413969990000624,4561,2112,0
2.945345290000205,64,1024,0
2.948320502000115,0,768,0
2.951389176000248,3216,976,0
2.95525746300018,0,2320,0
2.958481483000014,3440,1648,0
2.962224071000037,3136,1856,0
2.965533506000156,0,560,0
2.9685805960002654,2976,2304,0
2.9722617289999107,1184,1136,0
2.9755532140002288,256,1808,0
2.9793075950001366,4705,2256,0
2.9823643710001306,1440,1280,0
2.9864237380002123,0,5889,0
2.989389633999963,1824,2880,0
2.993441058999906,2064,2288,0
2.9964908629999627,1136,1888,0
3.000230354999985,1056,560,0
3.0033330090000163,2016,1760,0
3.006556115999956,0,464,0
3.0103386629998568,6369,2816,0
3.014347971999996,1888,1904,0
3.0172692090000055,5073,2768,0
3.0211632979999195,3440,1424,0
3.0244797539999126,1184,1568,0
3.027544311999918,0,656,0
3.031224358000145,192,272,0
3.0343182480000905,0,1872,0
3.038224072000048,2912,1872,0
3.0412208210000244,5969,3280,0
3.0444185870001093,240,944,0
3.0483071630001177,0,5777,0
3.0513387760001933,3568,224,0
3.054304957000113,0,1360,0
3.058247575000223,4609,4529,0
3.061381212000015,4097,1296,0
3.065252664000127,1792,752,0
3.068313307000153,64,1472,0
3.0721737640001265,1936,912,0
3.0753195840002263,1040,1696,0
3.079213786999844,4289,2080,0
3.0821428350000133,1744,2048,0
3.08607507600027,0,6913,0
3.089097828999911,848,2016,0
3.093033052999999,1104,1168,0
3.0960739669999384,1472,2128,0
3.10003057799986,1040,2464,0
3.1033321640002214,1200,1360,0
3.1072298519998185,160,304,0
3.110343667000052,3440,1760,0
3.1142183289998684,1792,2256,0
3.1173432720001983,2880,1872,0
3.1210307460000877,5889,1904,0
3.1242429389999415,0,1728,0
3.1272676459998365,0,1328,0
3.131283102999987,1792,800,0
3.1341355849999673,0,1552,0
3.1381939620000594,3248,2576,0
3.141144808000263,4785,2336,0
3.1443564960000003,0,720,0
3.148188067999854,0,1376,0
3.151352771999882,3696,1824,0
3.15523602400026,1168,1456,0
3.1582784259999244,4353,1968,0
3.162244223000016,3120,1792,0
3.1654506119998587,0,0,0
3.1683483840001827,0,768,0
3.171548258000257,3168,1808,0
3.175356001000182,3504,2288,0
3.179200952999963,3840,1744,0
3.1823235010001554,3552,2272,0
3.1854256770002394,0,480,0
3.1894159990001754,688,864,0
3.1923045449998426,3936,2144,0
3.1963100510001823,1024,1536,0
3.1994860180002433,3120,1440,0
3.203422262999993,288,1376,0
3.206342247000066,208,1616,0
3.2095430780000243,0,1376,0
3.213481258000229,1168,6497,0
3.216494272000091,1808,1984,0
3.2203585530000964,6497,4913,0
3.2233967420002045,0,1424,0
3.227345615000104,0,1168,0
3.230507323999973,3056,2304,0
3.2342240309999397,480,2000,0
3.237306281000201,1808,1136,0
3.2412924999998722,4641,2160,0
3.244340179000119,480,1280,0
3.247402159000103,0,272,0
3.251324640999883,2304,2224,0
3.254408094000155,256,1392,0
3.2584487220001392,3152,2224,0
3.261546938000265,5121,1888,0
3.265452580999863,0,1216,1216
3.2683413290001226,0,480,0
3.2721889700001157,4449,1488,0
3.2754096560001926,784,368,0
3.278406310000264,4177,2016,0
3.2823276260000966,4769,2864,0
3.285451779000141,144,800,0
3.289394327000082,0,7393,0
3.2922688869998638,4000,1488,0
3.2963008709998576,1440,2208,0
3.2994294989998707,1552,1728,0
3.3033836559998235,0,1312,0
3.306444633999945,512,2048,0
3.309516720999909,0,1696,0
3.3132334299998547,3680,992,0
3.316402833000211,2800,1280,0
3.3204647470001873,2048,1376,0
3.3235335809999924,112,656,0
3.3273865999999543,256,656,0
3.3304719699999623,3360,1760,0
3.334261930000139,1184,1568,0
3.3375120189998597,3152,2320,0
3.3413122679999105,4721,1440,0
3.344397659000151,560,1632,0
3.347472325000126,0,1024,0
3.3512754739999764,3072,5169,0
3.354398822999883,336,1616,0
3.3582917260000613,4369,7601,0
3.361396915000114,5521,1968,0
3.3652996129999337,3328,3936,0
3.368184243000087,256,1072,0
3.3720198080000046,7329,2064,0
3.3751429960002497,1008,512,0
3.3790768670000944,4753,5217,0
3.3820930010001575,752,1200,0
3.386287666000044,0,6449,0
3.389299661000223,0,768,0
3.3921899060001124,1616,1600,0
3.3962464549999822,1632,5265,0
3.3993090540002413,1440,1248,0
3.403262199999972,3328,2720,0
3.4063957849998587,416,1008,0
3.410342222000054,3088,2144,0
3.413325633000113,880,3024,0
3.4172749839999597,3920,2448,0
3.420343951000177,5649,928,0
3.4243296469999223,5281,3232,0
3.427280222000263,0,432,0
3.431202115999895,4353,1296,0
3.4342496660001416,288,1328,0
3.43819684600021,4817,2528,0
3.441274264000185,5921,1840,0
3.4443167330000506,0,1440,0
3.44827966999992,1728,1328,0
3.4522039510002287,2848,1952,0
3.4554468460000862,1760,2016,0
3.459432941000159,3648,1760,0
3.4623197060000166,1840,1456,0
3.465660498000034,0,352,0
3.4693187080001735,512,5889,0
3.4724620400002095,2640,1024,0
3.476456189000146,1792,1024,0
3.4795793580001373,1280,2208,0
3.4833566639999844,5457,3920,0
3.486534512000162,0,1216,0
3.4903071329999875,1184,336,0
3.493522344000212,1424,768,0
3.497285121999994,2304,1632,0
3.5005173780000405,2816,1744,0
3.5044735440001205,128,1760,0
3.5074799670001084,0,752,0
3.510435314999995,2240,1488,0
3.5144158789998983,0,5377,0
3.51736709800025,2656,1872,0
3.5213270509998438,5377,2304,0
3.524492116000147,0,880,0
3.5275037800001883,0,992,0
3.531302094000239,3184,1280,0
3.5345647570002257,672,2096,0
3.538410345000102,4449,2288,0
3.5414257890001863,4641,1536,0
3.5452412180002284,256,1216,0
3.5483543390000705,736,1296,0
3.5521498600000996,3472,784,0
3.555480971000179,1104,1824,0
3.5592507880000994,2832,1104,0
3.562258296999971,2448,1280,0
3.5655542670001523,0,1104,0
3.5693294880002213,256,4497,0
3.5723442819999036,2208,1712,0
3.5764468910001597,3056,4849,0
3.5794268350000493,1280,432,0
3.5832506060000924,1808,4785,0
3.58646378200001,0,0,0
3.590242266000132,2048,1616,0
3.593531973000154,2832,2448,0
3.5974100749999707,2432,1392,0
3.6003542769999513,2080,1776,0
3.6043965019998723,1200,1056,0
3.6073342999998204,0,944,0
3.610395812000206,3376,2368,0
3.6144240600001467,0,2256,0
3.617312797000068,3056,2048,0
3.6212184940000043,5281,2256,0
3.6245356640001773,816,2992,0
3.62755065500005,0,1104,0
3.6312222669998846,5185,2976,0
3.634434467000119,560,1728,0
3.6383214880002015,5841,2816,0
3.642174665999846,4529,1264,0
3.6453575949999504,1536,1792,0
3.6492109509999864,1248,912,0
3.652226672999859,7009,2240,0
3.6554060009998466,832,1952,0
3.6592050160002145,5361,2304,0
3.6631030759999703,1904,1424,0
3.666247746999943,480,1744,0
3.6691583179999725,256,1376,0
3.6730881970001974,6945,4513,0
3.6770210419999785,2816,2000,0
3.680045269999937,2880,2000,0
3.684234519000256,176,1312,0
3.687212642999839,0,1968,0
3.690277803999834,2256,1040,0
3.6942719769999712,176,1056,0
3.6971186870000565,1536,1104,0
3.701090771000054,6369,2576,0
3.704306308000014,240,2048,0
3.7082563429999027,0,1616,0
3.7112722199999553,4113,2304,0
3.7143098000001373,0,2016,0
3.7182605050002167,4865,7409,0
3.7212945000001127,5025,2000,0
3.725291483000092,4241,3104,0
3.7282666390001395,240,768,0
3.7321682269998746,1632,1968,0
3.7353109710002173,976,1776,0
3.739281396000024,5585,2080,0
3.742314085000089,2736,2352,0
3.7463986420002584,0,4625,0
3.7493434540001545,2400,4016,0
3.753283202000148,1136,1696,0
3.7565558229998715,2560,1296,0
3.760255526000037,1696,928,0
3.7635566779999863,752,1376,0
3.767194020000261,368,976,0
3.770334749000085,1040,3536,0
3.774405821000073,912,1568,0
3.7774156549999134,3072,1936,0
3.781304170000112,5537,2352,0
3.7844920640000055,768,752,0
3.7875742649998756,0,816,0
3.791461950000212,2096,2096,0
3.7945089360000566,0,1920,0
3.798282746000041,4353,1536,0
3.801487368999915,5617,1216,0
3.8052644419999524,592,1648,0
3.8083894740002506,2304,2304,0
3.8121833509999306,2112,1296,0
3.8154217290002634,1072,2240,0
3.8194248310001058,3088,2096,0
3.822337847000199,2864,2272,0
3.826424895999935,48,1312,0
3.829188409999915,2800,1296,0
3.8331977269999697,3072,1504,0
3.836489795000034,1888,2160,0
3.840443544000209,1328,240,0
3.8435675919999994,1504,1792,0
3.8465693460002512,16,816,0
3.850240207999832,2816,4241,0
3.8536147340000753,1808,1520,0
3.8573594049998974,3328,3440,0
3.861286193000069,1744,1392,0
3.864429124000253,1552,1792,0
3.8673186480000368,0,1136,0
3.871491523000259,1504,6209,0
3.874613502000102,2528,1744,0
3.878484397000193,6129,3792,0
3.882132164000268,4865,2160,0
3.8853882590001376,1744,2224,0
3.8885504700001547,240,544,0
3.8922859240001344,3360,5553,0
3.895516735000001,832,1312,0
3.899316382000052,2656,5217,0
3.9023708479999186,1136,400,0
3.906383940000069,336,4513,0
3.9095447190002233,1200,0,0
3.9134738410002683,2512,1424,0
3.916360686000189,2448,1280,0
3.920237418999932,1104,592,0
3.9236065099998996,1280,2416,0
3.9273572590000185,464,1504,0
3.9305504079998173,1648,1280,0
3.9343308269999397,400,1760,0
3.93736742100009,2864,1904,0
3.9412734669999736,4048,2048,0
3.944328867999957,0,1136,0
3.947492635999879,0,1200,0
3.9513018120001107,2576,1280,0
3.9543612339998617,528,1792,0
3.9583084250002685,4929,1072,0
3.9613973909999913,5713,1776,0
3.965295615999821,0,1056,336
3.9682262070000434,0,976,0
3.971251143000245,2768,512,0
3.9751322530000834,656,5905,0
3.9781659039999795,6369,1360,0
3.9821623299999374,4881,5713,0
3.985291230000257,736,1024,0
3.98936441800015,112,5393,0
3.9922104709999076,2304,3056,0
3.99629486799995,2016,1280,0
3.9991116619999048,2048,992,0
4.003089983999871,3072,4016,0
4.0062787960000605,0,1584,0
4.010057376000077,16,1040,0
4.013361649000217,5041,1840,0
4.0171057669999755,2000,1888,0
4.020348875999844,3232,1024,0
4.024302485000135,544,1936,0
4.027242706999914,528,624,0
4.030306510000173,3296,1040,0
4.034265337999841,4529,2912,0
4.038213243999962,2640,2464,0
4.041352627999913,6417,2544,0
4.044458284000029,0,1280,0
4.0483227499998975,0,6545,0
4.051525815999867,2816,1552,0
4.055375986999934,1088,1392,0
4.05860660899998,2832,1792,0
4.062304721000146,3328,1008,0
4.065419851000115,0,752,0
4.068582122999942,0,1904,0
4.072294026000236,1936,2480,0
4.075484591000077,576,1872,0
4.079375485000128,4145,2720,0
4.082455367999955,2560,1792,0
4.086471631000222,0,1168,0
4.089429098999972,784,784,0
4.093442507999953,1760,1888,0
4.096305400999881,4337,3024,0
4.099599157999819,976,1360,0
4.1034237779999785,3344,2912,0
4.106596275999891,0,1184,0
4.1104283969998505,0,640,0
4.113524153000071,5105,3440,0
4.1174201459998585,2304,2560,0
4.12061728100025,2336,3360,0
4.124211082999864,176,1280,0
4.127542480000102,1936,1440,0
4.131339515000036,3232,1328,0
4.134373364000112,144,1792,0
4.138262772999951,6161,2272,0
4.141529615999843,5569,2480,0
4.145355904000098,1056,1696,0
4.148478740999963,0,1904,0
4.151622542000041,3376,1232,0
4.155438311000125,2736,2816,0
4.159305671999846,5409,1632,0
4.162329451000005,3840,1376,0
4.165485097999863,0,800,0
4.16937883799983,0,1440,0
4.172367269999995,6417,1760,0
4.176455744000123,1792,2064,0
4.17943636300015,4369,1856,0
4.183287092000228,2112,2336,0
4.1865446390002035,144,1504,0
4.19045377600014,368,928,0
4.193384167000204,4129,2688,0
4.19747362499993,1904,1520,0
4.200293913000223,3600,2336,0
4.204473952000171,1984,1760,0
4.207519850000153,0,688,0
4.210605615000077,2048,1424,0
4.214357126999857,1504,4849,0
4.217612431999896,1744,976,0
4.221391736999976,7377,6449,0
4.2244109640000715,160,768,0
4.22845197200013,48,1648,0
4.231350481999925,3440,1168,0
4.234387637000054,0,1024,0
4.23830443199995,6641,4113,0
4.242175479000252,4529,2048,0
4.245345522000207,816,1280,0
4.248358178000217,688,912,0
4.252287583999987,2528,4337,0
4.255353846000162,0,736,0
4.259228923000137,4689,2144,0
4.26215210700002,3328,1776,0
4.266125697999996,256,1120,0
4.269164961000115,3040,1680,0
4.273034230000121,1904,1808,0
4.276148004999868,2304,2304,0
4.280324350000228,2208,1552,0
4.283142822000173,1376,1616,0
4.286323032999917,0,32,0
4.290022548000252,0,5601,0
4.293073327999991,1376,1584,0
4.297108441000091,2736,2256,0
4.30039628700024,1776,1696,0
4.304352704999928,1024,2016,0
4.307422466999924,16,1280,0
4.311321229999976,2816,1632,0
4.3143546320002315,0,1584,0
4.318429063000167,2528,2096,0
4.321423320000122,7905,2144,0
4.324585365000075,0,1184,0
4.328425527000036,0,816,0
4.331376540999827,4609,2048,0
4.334407536000072,768,1584,0
4.338353252000161,4369,1904,0
4.342209175999869,4785,1440,0
4.345403419999911,0,1008,0
4.348361123999894,688,1024,0
4.352261183999872,1872,1840,0
4.355464718999883,1280,2000,0
4.359338480000133,3904,4273,0
4.362382576000073,2208,1776,0
4.366540671000166,4080,2976,0
4.370246887000121,1312,2528,0
4.373526015000152,3360,2416,0
4.377437074000227,1200,1792,0
4.380371415999889,2784,1888,0
4.3844055869999465,160,320,0
4.387349469000128,2416,1536,0
4.390439097000126,3216,944,0
4.39454516700016,1824,4177,0
4.398205855000015,2496,1712,0
4.401350114000252,6801,2448,0
4.404412316000162,0,1392,0
4.408301250000022,0,6593,0
4.41155952500003,2832,2048,0
4.414415389000169,0,1280,0
4.418388536999828,6769,2928,0
4.42220276199987,4433,2384,0
4.4254194830000415,1264,1136,0
4.428380156000003,240,944,0
4.432227331999911,8450,2400,0
4.435501353999825,112,1024,0
4.439349565000157,5121,5009,0
4.442411035000077,2304,1680,0
4.446487722000256,3360,2400,0
4.450196562000201,1776,1744,0
4.453506100000141,2880,1472,0
4.457439941999837,1728,1776,0
4.4603111599999465,4209,1792,0
4.464278783999816,944,672,0
4.467310419000114,2224,2048,0
4.471409075999873,3088,736,0
4.474554068000089,2768,3216,0
4.478282024000237,3312,1984,0
4.481379916000151,6033,2768,0
4.484598793000259,0,1984,0
4.488326400000005,0,5201,0
4.491570849000254,2448,1264,0
4.495324903999972,16,2256,0
4.498403207000138,2272,1648,0
4.5021921910001765,4193,1600,0
4.505339951000224,0,0,0
4.508396919999996,0,1248,0
4.5114707980001185,2992,1552,0
4.515404070999921,2304,2832,0
4.519198994999897,6113,2736,0
4.522371016999841,3840,2512,0
4.525586755999939,0,2976,0
4.52922522200015,0,5745,0
4.532334331000129,3872,1056,0
4.5354534779999085,0,1232,0
4.539412561000063,3856,3072,0
4.543221558999903,1616,1792,0
4.546387460999995,784,2048,0
4.5502582069998425,1616,1328,0
4.553382905000035,4097,2784,0
4.5571720030002325,2304,2000,0
4.560278143000232,2544,2064,0
4.564176266000231,1376,1536,0
4.5671619190002275,0,1792,0
4.5701020070000595,2224,560,0
4.574046632999853,288,3632,0
4.577139385999999,1760,1488,0
4.5813154880002,8049,6337,0
4.584298585999932,0,1248,0
4.588269001999834,368,1568,0
4.5913416379999035,2304,1872,0
4.595237542000177,1072,1712,0
4.5981250830000135,3616,1840,0
4.602109919000213,4000,2288,0
4.605292657000064,0,976,0
4.608327075000034,0,2256,0
4.612118213000031,4064,496,0
4.615285947999837,1136,2304,0
4.619377331000123,3328,2048,0
4.62217807900015,2816,1360,0
4.626125330999912,0,1296,0
4.62925052699984,864,1120,0
4.633247944000232,2560,1280,0
4.636222271999941,2576,3088,0
4.640244917000018,1392,672,0
4.643398060999971,848,1264,0
4.6465034510001715,192,1056,0
4.650318018000235,2064,1280,0
4.654300862000127,2096,2000,0
4.657425677999981,4401,2640,0
4.66135752900027,2912,1840,0
4.664429650999864,976,1328,0
4.66831303500021,336,1056,0
4.671416593000231,3888,2608,0
4.674527272999967,0,1440,0
4.678309214999899,6897,2048,0
4.6814751880001495,6369,2576,0
4.6853754650001065,752,5713,96
4.688421367000046,0,1136,0
4.6922641890000705,3072,1792,0
4.695411448999948,0,912,0
4.698568315000102,5809,2304,0
4.702380419999827,5217,2768,0
4.705459297999823,0,960,0
4.70870049899986,0,1440,0
4.712484797999878,5489,2128,0
4.715535189000093,256,1088,0
4.7195679750002455,5713,3024,0
4.72331651200011,2128,2256,0
4.726519486000143,944,32,0
4.729545343000154,0,1200,0
4.733333474000119,2368,1504,0
4.7365874759998405,2816,2352,0
4.740482751999934,1536,768,0
4.743561578000026,1040,1584,0
4.746511125999859,0,1184,0
4.750538587999927,720,2784,0
4.753461038999831,1808,2800,0
4.757429132000198,1024,5697,0
4.760489762999896,3328,944,0
4.7645232800000485,1648,5697,0
4.76738797400003,0,1792,0
4.771350106000227,3360,1312,0
4.774553222000122,0,1296,0
4.778425250000055,3984,2064,0
4.781458731999919,5377,2448,0
4.785311352999997,1024,832,0
4.788381069000025,0,1040,0
4.794041787999959,4097,1296,0
4.795310657999835,736,5617,0
4.798420189999888,6001,1840,0
4.80223452600012,3328,32,0
4.8053249380000125,0,1024,0
4.808381103000102,160,1280,0
4.812284080000154,7697,3184,0
4.815437496999948,784,2496,0
4.81928483899992,3696,4193,0
4.8231162749998475,1840,1888,0
4.826196500000151,4145,2832,0
4.830089857000075,1232,1024,0
4.833097582999926,2304,2256,0
4.837043153000195,2096,1984,0
4.840108319000137,2256,2160,0
4.844059935000132,752,1328,0
4.8470825469999,256,656,0
4.850079886999993,3824,592,0
4.854057887000181,4785,3488,0
4.85806218200014,2016,1168,0
4.861089131999961,6401,2720,0
4.864084593999905,0,992,0
4.868508321000263,0,2048,0
4.871144002000165,4513,1536,0
4.874153171000216,0,2224,0
4.878135666000162,5073,2528,0
4.881165663000047,5489,2640,0
4.885106038000231,2288,3696,0
4.8881706769998345,0,592,0
4.892152914000235,3808,1360,0
4.8951036200001,1312,2000,0
4.8990597110000635,3488,1616,0
4.902159911000126,2816,2224,0
4.906121624000207,0,1360,0
4.909138990999963,2304,1712,0
4.913137228999858,1024,2080,0
4.916132565000225,1792,2288,0
4.920400548000089,816,656,0
4.9233853209998415,3296,1584,0
4.927386165999906,432,1376,0
4.930377926999881,3808,2048,0
4.934326930000225,1536,2320,0
4.937455548999878,2848,2240,0
4.941362906999984,2992,1312,0
4.944160228999863,768,1280,0
4.9474129999998695,0,1264,0
4.951326055000209,4305,5073,0
4.954320214999825,0,1120,0
4.958360298000116,4385,1952,0
4.96131982199995,4545,1312,0
4.964351548000195,0,928,0
4.968247318000067,2304,1488,0
4.972181994000039,3424,2304,0
4.97548327100003,2272,2896,0
4.979320268000265,4433,1792,0
4.9825364460002675,2304,1440,0
4.985438015999989,48,656,0
4.9894652749999295,0,3616,0
4.9923565409999355,4305,1776,0
4.996481896000205,368,1056,0
4.999373959999957,3648,1440,0
5.003315406000183,1328,2256,0
5.006589525999971,432,1232,0
5.010486448999927,1248,1024,0
5.013531047000015,1776,2976,0
5.017314126000201,2672,2704,368
5.021283285000209,2256,1408,0
5.024545367999963,2304,2384,0
5.028249307999886,560,1040,0
5.03140215700023,5121,2048,0
5.034445404000053,0,1792,0
5.03833408599985,7185,1024,0
5.041463519999979,5809,2048,0
5.045343320000029,0,4897,0
5.048401326000203,496,544,0
5.052228244000162,3728,1792,0
5.05540892099998,928,1456,0
5.059252647999983,5889,2608,0
5.062363270999867,6097,1712,0
5.065400951999891,0,720,0
5.069276560000162,16,1040,0
5.072341339000104,3280,1488,0
5.076333849000093,1488,1840,0
5.079453708000074,3776,1024,0
5.083295033000013,1600,1632,0
5.086541112999839,0,880,0
5.090296219000265,1280,1712,0
5.093530294000175,2464,2576,0
5.097293622000052,1280,1776,0
5.100372152000091,3328,1440,0
5.104276989000027,816,1920,0
5.1073516649998965,848,1488,0
5.111235166999904,2560,1280,0
5.114352893000159,2192,2640,0
5.118243828000232,2736,1952,0
5.121371575000012,5633,2416,0
5.125290039999982,1280,880,0
5.128214729999854,0,1472,0
5.131250521999846,3008,1040,0
5.135202419000052,3216,3920,0
5.1391150869999365,2064,1904,0
5.1421694300001946,4401,2304,0
5.145317219999924,0,1520,0
5.149136237000221,0,656,0
5.152185410000129,6401,2384,0
5.1553179550001005,0,1648,0
5.159283813999991,5937,1888,0
5.162186591000136,1888,1712,0
5.166406539000036,256,4433,0
5.169344092999836,512,1280,0
5.173395465999874,2032,1568,0
5.176405968999916,2544,2304,0
5.180305531000158,256,8882,0
5.18339927299985,2080,1104,0
5.1873859430002085,0,2000,0
5.190157816999999,1280,2400,0
5.194368470999962,944,1472,0
5.197341339000104,3584,2288,0
5.201344326000253,3760,1840,0
5.204503496000143,1056,1584,0
5.208438049000051,0,1504,0
5.2115591380002115,3888,2816,0
5.214413622999928,0,1504,0
5.218495453999822,7057,2672,0
5.221400666000136,4449,2480,0
5.225397110999893,0,6145,736
5.228594751999935,0,304,0
5.232265027000267,2864,1104,0
5.235450152999874,1200,2320,0
5.239285572999961,5745,2848,0
5.242385208000087,3072,1232,0
5.246234505999837,256,464,0
5.249519540000165,1264,1696,0
5.253309642000204,3168,1312,0
5.256346042000132,2224,1440,0
5.260509137000099,1248,1760,0
5.263642462000007,1792,1280,0
5.266433446000065,0,0,0
5.270527053000023,1680,176,0
5.273621738000202,3248,2048,0
5.277546307000193,3760,3376,0
5.280659911999919,1552,1792,0
5.284438448999936,2192,1792,0
5.2876154330001555,0,1280,0
5.29153444800022,5777,1216,0
5.29445460199986,0,3280,0
5.297674417000053,4641,2416,0
5.301551119000123,7665,1712,0
5.3045537709999735,2448,608,0
5.308626530999845,7665,3328,0
5.312309278000157,1024,7505,0
5.315534796000065,2320,4385,0
5.319480532999933,5041,848,0
5.322406825000144,4000,1968,0
5.325569094999992,848,768,0
5.329430753999986,256,4753,0
5.3324815910000325,1360,1536,0
5.3365831080000135,2112,6033,0
5.339639832000103,2048,784,0
5.343550552000124,768,5489,528
5.3466441450000275,0,624,0
5.350507802000266,2928,848,0
5.353622543000256,3808,1792,0
5.357535765000193,10898,672,0
5.360632945999896,4913,1344,0
5.364399089000017,5281,1040,0
5.367647854000097,2640,1632,0
5.371509716000219,0,1696,0
5.374489752000045,4721,1744,0
5.378546753000137,2512,2464,0
5.381462111000019,3824,1840,0
5.385352538999996,3504,2864,0
5.388655232000019,28310,1360,0
5.392321834000086,1616,6241,0
5.395540005999919,9826,2304,0
5.399413738000021,9186,4209,0
5.402476588999889,1184,784,0
5.406434656999863,8466,3936,256
5.41031480699985,5169,816,0
5.4134352000000945,1680,1200,0
5.417356142000244,2672,2864,0
5.420460019000075,2048,2256,0
5.424277874999916,16083,2016,0
5.427257784000176,2816,1328,0
5.431201028000032,4097,768,0
5.434232141999928,11266,1856,0
5.4383004860001165,7665,3504,0
5.442169724999985,7441,832,1696
5.44540084900018,0,2256,0
5.449141128000065,7969,1904,0
5.4521886249999625,13635,3504,0
5.456425498000044,5569,2128,608
5.45943226899999,784,6129,912
5.463319481999861,10530,4289,3552
5.467393904999881,6625,1584,0
5.470422150000104,7793,1424,0
5.474436376000085,1648,4097,2304
5.478407287000209,5073,4353,0
5.48131229899991,14835,3312,0
5.485404204000133,9474,0,3504
5.489388462000079,54397,3376,0
5.492278956000064,3312,1792,0
5.495401700999992,0,2144,0
5.499461415000042,4353,3120,0
5.502443057000164,3744,1280,0
5.506484001999979,0,5041,0
5.509559350000018,112,1968,0
5.513316784999915,2320,1872,0
5.5163853210001434,0,2304,0
5.520421812000222,16740,1104,0
5.5235962309998285,2992,3168,0
5.527487401000144,5713,2048,0
5.530583081000259,256,1888,0
5.534489379000206,7025,1392,0
5.5375661070002025,1856,3024,0
5.54132891900008,128,2144,0
5.54435402900026,1792,1792,0
5.548354689000007,160,2368,0
5.55144730200027,560,3328,0
5.555400509000265,4048,2960,0
5.558652446999986,12643,4561,0
5.562334738000118,9986,1568,0
5.565554907000205,21765,1312,0
5.569541470999866,6865,6961,0
5.572495959000207,1792,3040,0
5.576605074999861,14595,8354,0
5.580378236999877,7937,6641,0
5.583620145000168,1392,9986,0
5.587560121000024,14179,4385,0
5.59047671899998,4032,2192,0
5.5945509900002435,3168,1280,0
5.597525080000196,512,752,560
5.6013653620002515,13619,11602,0
5.605538284999966,4801,2704,0
5.608648640999945,24790,768,0
5.612419635000151,21173,1232,4209
5.616259829000228,1184,1728,0
5.6194808979998925,15619,3584,0
5.6235534200000075,29943,736,0
5.626650683000207,10242,1872,0
5.630486868999924,15363,2144,5137
5.634625082000184,32920,5729,7713
5.638594833999832,3264,2816,0
5.641493774000082,14227,12307,0
5.645390692000092,0,5889,0
5.648470657999951,15971,2048,0
5.652383781000026,2560,3440,0
5.655615984000178,624,3616,0
5.659543605000181,5553,9762,0
5.6624415450000924,560,1008,0
5.6663114749999295,2048,176,0
5.669656147999831,18532,2304,0
5.673610532000112,14627,2368,784
5.677544880999903,14579,3520,0
5.680634872000155,848,2128,0
5.684403017000022,20276,3120,0
5.688390542999969,15875,12274,2064
5.691490882999915,12883,960,0
5.695336311000119,0,2160,848
5.698460280999825,9298,848,7921
5.70242245999998,12050,5889,0
5.706394102000104,13059,10450,0
5.710348688000067,16644,4353,6209
5.714305670000158,28999,1056,3904
5.717323650000253,6769,6305,0
5.721262728000056,22853,3904,0
5.725212003000252,7121,1872,1456
5.728221444000155,9522,2016,14083
5.732221049000145,49260,10386,3136
5.7364521770000465,5169,4177,0
5.740435753999918,15571,4609,1008
5.743468158000269,8754,5457,0
5.747366257000067,6289,11058,0
5.750241446000018,9250,2480,0
5.754436494999936,6721,3504,528
5.758351024000149,17156,2784,0
5.761478096000246,14595,352,0
5.76536775500017,6225,3328,3760
5.7684775450002235,0,1200,0
5.772192233000169,0,11634,0
5.7764034850001735,5393,1984,4641
5.7794429320001655,16131,2176,0
5.782334351999907,0,544,0
5.786355681000259,4561,3040,0
5.790368160000071,5665,1824,1760
5.794330915000046,19284,1104,4321
5.797491010000158,12963,4705,0
5.801408802999958,19508,5473,0
5.805555242000082,5105,3408,9250
5.808707707999929,15075,5233,0
5.8123986049999985,12371,768,0
5.815461461000268,0,5233,544
5.819553511999857,7985,1328,448
5.823555060000217,9618,6481,1040
5.826685566999913,2304,2960,912
5.830556672000057,24710,13395,1904
5.834655742999985,38153,52908,2544
5.83863677699992,3168,6961,2112
5.842340114999843,3328,3856,0
5.845544478000193,2832,1936,0
5.849405709000166,10770,6961,0
5.852496638000048,4625,1840,0
5.856441989999894,3840,6401,928
5.860489259000133,768,1888,0
5.863461860999905,224,1504,0
5.866634126000008,16,512,0
5.8703201150001405,272,736,0
5.8737159279999105,4193,1472,2064
5.877477959999851,2048,5121,5681
5.881489887000043,12947,432,0
5.884587388999989,0,752,0
5.888570232999882,8450,592,1280
5.891682125999978,10994,560,3152
5.895524295000087,13219,5665,9490
5.899593797999842,25318,16131,0
5.903610643999855,28102,4161,11010
5.907592131999991,27670,7249,16692
5.911497749999853,6833,1040,0
5.914466285999879,4385,4064,0
5.918586466999841,35992,1232,0
5.92166818700025,0,6865,13075
5.925658655999996,17556,6769,1024
5.929428257999916,13363,3936,0
5.932494356999996,10498,1280,0
5.936656671000037,20485,4513,4865
5.94057536299988,22325,4353,0
5.943678725000154,48347,368,0
5.947435976000179,11938,4529,0
5.951401037999858,1680,2352,0
5.954655297000045,2768,1824,4241
5.958672694000143,1968,11826,0
5.962451103000149,1280,7505,1792
5.966521430999819,31719,6705,3296
5.969555247000244,4609,3216,0
5.973603567999817,800,512,4016
5.9775754170000255,8450,1520,7121
5.980677903000014,38681,4801,0
5.9843928630002665,23445,2816,0
5.9874427320000905,8530,3824,0
5.991393711000001,6385,8338,5889
5.994474524999987,0,944,0
5.998401285999989,11522,2000,6401
6.002376971000103,16243,5553,7249
6.006338549000247,44730,14755,0
6.0102744320001875,10802,1792,0
6.013349946999824,0,2736,0
6.017214927000168,26870,16500,0
6.020327617000021,26230,2400,4593
6.024255278000055,1616,5713,2032
6.028154513000118,11762,6641,0
6.031239034000009,55021,8546,0
6.035336278000159,3792,2608,0
6.03847058600013,80,6449,0
6.0421601900002315,5873,0,0
6.045300784000119,2816,1184,0
6.049424251999881,4609,4193,0
6.052202243000011,11314,592,0
6.056385975000012,4769,96,4641
6.059485299000244,3312,1648,0
6.063365575000262,1136,7601,0
6.066450520000217,0,11010,0
6.070348773000205,2880,4145,0
6.0734856519998175,7969,4641,0
6.077387723999891,9234,7601,2544
6.081277170000249,304,1440,0
6.0845180619999155,5873,3696,0
6.088593885000137,15507,480,10498
6.092419937000159,11282,8690,0
6.0955176940001365,0,3328,3360
6.098644502999832,0,4369,0
6.102548984999885,16339,8530,3072
6.106643356999939,6049,5649,3728
6.1104167190001135,1840,23557,0
6.113529013000061,17540,2832,0
6.11762323899984,16035,8498,1536
6.121583273999931,10338,11058,0
6.125638651999907,33944,2848,3648
6.128411641000184,14995,912,0
6.132140086000163,3664,26374,0
6.136363717000222,0,6913,1456
6.139377290000084,0,2592,0
6.14315578500009,4865,352,10594
6.1464577259998805,5729,10162,0
6.150460890999966,3920,1792,0
6.153462094000133,2816,4337,0
6.157383541999934,3808,6769,4369
6.161332436000066,11298,2656,0
6.164378000999932,0,368,0
6.167651976999878,4657,2224,0
6.171468873999856,4177,2560,2592
6.1755022629999985,1808,9378,2816
6.179432886000086,10082,8145,0
6.1826392560001295,1536,3024,3488
6.186672385999827,3616,3264,5713
6.190340226999979,2288,0,0
6.193454510000265,336,2496,2592
6.1974982380002075,3168,12387,1088
6.201330294999934,4257,480,0
6.204669318000015,20645,4193,0
6.208441851999851,5889,7313,0
6.211518689000059,8946,2304,0
6.215494356999898,10402,1600,0
6.219551561000117,4817,464,2336
6.222725656999955,32343,4577,6689
6.226488319000055,6033,1584,0
6.2295817540002645,0,1328,112
6.2335707239999465,7905,7713,1952
6.237546304000261,3328,13875,0
6.240627164000216,1024,1616,0
6.244554609000261,4353,5585,0
6.248347889999877,3328,1792,0
6.25144615499994,800,2192,0
6.254530251000233,0,512,1504
6.258549615999982,3792,12499,0
6.262534958999822,13315,992,5041
6.266369165000015,5121,5409,4080
6.269620088000011,0,11298,0
6.272676543000216,5569,816,0
6.276513354000144,14451,6673,0
6.280449887000032,2736,1728,448
6.283477745000255,0,2304,0
6.287318700000014,21765,672,0
6.290469829999893,1296,560,48
6.293550203999985,176,928,0
6.2974550429999,1712,4097,0
6.3005099150000206,1584,224,0
6.304336281999895,3632,9954,5121
6.308247255999959,0,5873,528
6.311302179999984,5617,2880,0
6.315192874999866,8562,0,1744
6.319141236000178,12515,2512,3472
6.322207596000226,0,2048,688
6.326431750000211,14851,1040,0
6.329494548000184,11250,1952,64
6.33335815800001,0,9394,0
6.337164813000072,3936,2496,9250
6.340491980000024,16516,3600,0
6.344443074000083,5281,880,0
6.347444094999901,3536,7249,0
6.350517888000013,0,7425,0
6.354440033000174,2016,12387,0
6.358321036000234,528,13411,0
6.361439401000098,10578,1280,0
6.365248973000234,1408,880,0
6.368354472000192,5329,4129,0
6.372350156000266,3248,4401,6705
6.376433668000118,13155,8450,496
6.379490789000101,12547,3232,0
6.383528359000138,10930,17460,272
6.387585944999955,10194,7921,0
6.390681808999943,1792,2304,0
6.394568767000237,416,16,4353
6.398396262000006,10530,1280,2368
6.4015675670002565,1328,3168,0
6.405565675000162,1712,6881,11890
6.409499827000218,3936,3104,6977
6.4126024709999,2368,240,0
6.416725055999905,16051,1264,4401
6.4206848660001015,11570,7169,4913
6.424619673000052,8530,3920,1024
6.428555123000024,5601,15091,0
6.431509120000101,5745,4641,0
6.435462724999979,5633,1440,0
6.438754975999927,3872,592,3600
6.442595232000258,7249,3328,0
6.4464493460000085,11874,5601,0
6.449610524000036,784,2480,0
6.453569636999873,12547,688,0
6.45666367900003,5313,1344,0
6.460440002000269,11986,5121,0
6.463509985000201,9842,0,0
6.466514966999966,0,6097,0
6.470619113999874,8338,656,3168
6.473597914000038,5905,864,0
6.477677601999858,1280,2048,1824
6.481432596000104,10146,5697,0
6.4847038460002295,7393,1104,0
6.488489830000162,752,7009,0
6.492475427000045,6641,16708,15987
6.496400126000026,12323,11122,0
6.499484663000203,3904,8626,5089
6.503594366000016,10402,2304,0
6.5073197609999625,3664,6753,0
6.51044863900006,15123,1392,0
6.514468023000063,9138,3616,2608
6.51755947699985,5873,8818,0
6.5215435370000705,13907,1504,0
6.525408841000171,6225,21301,0
6.52848726000002,9474,16596,0
6.532518896000056,0,13059,16083
6.535564406000049,0,7425,0
6.539480903999902,10610,752,1024
6.543365904999973,1968,2144,0
6.546546310999929,11474,64,2768
6.550586062000093,2672,3152,0
6.554410956000083,272,7537,2160
6.557555828000204,9586,864,12002
6.561493987000176,3072,5537,400
6.565404848000071,3264,4305,0
6.5695009450000725,10130,8834,10050
6.573307936000219,11506,5009,18692
6.576451779999843,3424,2320,0
6.580327495999882,19428,0,2448
6.583477778000088,9426,3632,0
6.5873705839999275,7841,2608,0
6.5913649640001495,15235,7713,5105
6.594403310999951,80,768,0
6.598408635999931,13011,5793,5265
6.601474812000106,14707,4113,0
6.605320476000088,4561,2704,0
6.609203517999958,9122,9986,0
6.612258099999963,7233,14963,6689
6.616192339999998,6993,3328,0
6.620392952000202,16131,5409,0
6.62349049300019,11330,6449,0
6.62735525800008,12114,7393,0
6.630406619000041,1056,464,0
6.634370278999995,8994,320,0
6.6374396370001705,9074,1232,0
6.641419769000095,0,0,1968
6.644445539000117,432,3744,0
6.647457758000201,0,1744,0
6.650471807000031,112,0,0
6.654454775999966,5281,2304,5569
6.658374665999872,9218,11874,3184
6.6622683589998815,8402,5649,0
6.665400025000054,8482,2448,2336
6.669483583999863,11010,6673,3984
6.673508659000163,0,6177,96
6.677508592999857,12178,2048,1392
6.680471056999977,4753,9906,0
6.684574045999852,256,4865,7425
6.688607810000121,1552,15187,3328
6.691624276999846,784,1456,0
6.695385904999966,5169,12451,0
6.698689376999937,18452,1008,0
6.702453963000153,4817,10674,0
6.706531744000131,3808,7425,1040
6.7097105090001605,29687,6145,0
6.713651314999879,12819,2336,0
6.717592883000179,7441,2288,1328
6.720550051999908,0,6321,240
6.724500908000209,2336,880,5425
6.727455872000064,0,160,0
6.731169591000253,1888,0,5137
6.734213555000224,0,768,0
6.738456362999841,3760,960,3888
6.7414451220001865,15587,4161,0
6.745309163000002,0,1024,0
6.748276806999911,5649,2816,2048
6.752218899000127,4881,5537,0
6.755385579000176,0,9522,0
6.759483030999945,5985,6145,0
6.762479400999837,11730,896,4625
6.7664487299998655,12355,12579,16
6.770546323999952,22069,96,0
6.773620721000043,0,9282,0
6.777566537999974,4113,18740,0
6.780679227999826,18692,2448,0
6.7845653130002574,0,1040,416
6.787621719000072,304,992,0
6.790722209000251,0,992,240
6.794601279999824,0,3792,48
6.797587423000095,7073,1792,0
6.801629904000038,3376,2304,0
6.804688973999873,10978,304,0
6.8087242900001,1184,10738,0
6.812523521999992,4785,8722,0
6.815470011999878,176,992,0
6.819416885999999,3856,2240,1120
6.823546252000142,11522,1840,1392
6.8267023449998305,4177,1968,0
6.830520744999831,5121,768,2048
6.833761121999942,12947,6513,0
6.837763074000122,10754,17860,7121
6.841519650999999,26214,6705,0
6.845393674000206,6225,528,0
6.848546667999926,22293,1008,0
6.852500594000048,16980,4080,0
6.8555854579999504,17316,1232,0
6.8596936429999005,24117,15091,0
6.8635891889998675,7217,1792,0
6.867392089000077,4753,14259,6913
6.870547156000157,12595,8722,2048
6.874460039000041,3248,14483,0
6.877501406000192,0,1792,0
6.88142346199993,1264,1520,0
6.884456042000238,0,1008,0
6.887518164000085,336,416,0
6.891460967000057,4097,2384,3984
6.895380587000091,0,10242,0
6.898327137000251,11666,3376,768
6.902273865000097,17412,3760,0
6.906247110000095,9906,1024,336
6.9092494960000295,12371,13427,0
6.9134467489998315,4625,6913,0
6.9174349200002325,2480,5361,0
6.920482995999919,7089,1232,8290
6.924456843999906,0,2736,3296
6.927471443999821,0,2848,0
6.931210684000234,19188,8113,0
6.9344078029998855,0,272,0
6.938426615000026,4417,1776,4817
6.941519273000267,12547,5121,0
6.945386462999977,1312,5537,0
6.948406913999861,0,0,0
6.952310312999998,1440,2816,256
6.956454262000079,1024,13715,5633
6.9595190959998945,7873,4849,0
6.963530509000066,3024,3072,22885
6.967395878999923,13491,15107,0
6.971373364000101,19828,10898,2224
6.974723997000183,21253,8562,1584
6.9787662570001885,12242,1312,18100
6.98248701600005,8946,21925,0
6.986559730999943,3056,4625,0
6.989666252000006,8594,3792,0
6.993556464999983,1504,0,256
6.996625249999852,10242,288,5121
7.000655380999888,4929,1376,496
7.0037213559999145,0,1200,0
7.007653797999865,15091,4561,0
7.011418141999911,0,1120,1888
7.014597101000163,32,5217,752
7.018462244000148,7281,1632,512
7.021555693000209,7153,976,3600
7.025518721000026,480,3936,3952
7.029547873999945,2400,2816,0
7.032493241999873,0,832,0
7.035525719999896,432,10338,0
7.03962613900012,5857,2816,0
7.043530875000215,0,4913,3328
7.047420136000255,16243,12371,12291
7.050637372999972,2336,752,0
7.054587318999893,9842,2368,1856
7.0585591340000065,2576,784,4657
7.061608498000169,1344,1040,0
7.065405427999849,4865,4497,0
7.068763969999964,9474,12547,0
7.072608490000221,20436,4577,0
7.076575740999942,24950,15843,0
7.079674386000079,0,1552,11426
7.083533080000052,6913,512,0
7.086665808999896,3328,0,4064
7.090589353000269,1024,7217,0
7.093719971000155,768,5281,1072
7.097677231000034,8450,5985,5793
7.101479740999821,10450,1696,0
7.105383038000127,1936,240,9650
7.108656534000147,0,768,0
7.111698390000129,256,304,3936
7.115539051000269,4353,8866,3504
7.119567287999871,1168,624,0
7.123525087999951,10402,2496,8722
7.126664886000071,6385,9682,16
7.130636989999857,4353,10530,1504
7.134578021999914,19204,1968,0
7.137683374000062,4353,5713,6001
7.141660262000187,25622,8706,1232
7.145519212000181,11554,8450,2560
7.149596404000022,304,5073,544
7.153529058000004,50956,18228,0
7.156488056999933,6721,8466,0
7.159607950000009,624,2928,0
7.163532076000138,2480,2320,6577
7.167400109000027,5105,448,1104
7.171302797999942,16,208,3040
7.174450735999926,4353,8626,0
7.178380128999834,2976,18772,0
7.181481587000235,8914,6097,0
7.185389374999886,336,9970,0
7.188419277999856,0,32,3152
7.192336652999984,5793,9058,0
7.1955024760000015,7281,10594,0
7.199309389000064,11618,8450,0
7.20322143400017,2768,2576,5073
7.206311788000221,7089,336,432
7.210229693000201,1216,0,256
7.213482242999817,336,3648,0
7.2174848949998704,18388,4145,0
7.2203858240000045,0,1232,0
7.224351784000191,8434,1024,0
7.227409866000016,6641,4257,208
7.231202595000013,0,1616,4000
7.234493080999982,0,13683,0
7.23846992100016,0,7505,6145
7.241425341000195,16900,512,0
7.245386453000265,1856,256,0
7.248377252999944,26726,13619,0
7.252411571000266,20837,14339,12627
7.2564922179999485,4977,2864,2048
7.260372439000093,10514,5121,0
7.263534115999846,4145,2432,0
7.267512148000151,7217,2544,0
7.270635238000068,2864,6689,0
7.274863512000138,17236,1280,2208
7.2785487030000695,20068,3856,1280
7.28242193899996,5841,11010,2816
7.286461109999891,31447,12258,18644
7.290536975000123,960,400,432
7.29365910100023,560,2720,848
7.297551818000102,10578,4817,0
7.30065441700026,0,5425,0
7.304603833999863,2080,944,6529
7.307635499999833,0,2096,0
7.311596177999945,8514,528,1280
7.31545018099996,4865,336,7761
7.31956677900007,2848,12355,3680
7.322660518000248,5073,28022,0
7.325616052999976,0,2960,0
7.329548662999969,9826,3040,0
7.333625436000148,6561,14083,2560
7.33675656000014,0,8450,5889
7.340664827000182,8594,15955,0
7.3445534779998525,2816,2480,0
7.3476717580001605,752,1552,0
7.350710661999983,0,752,0
7.3545998780000446,352,2560,0
7.3576607260001765,6593,64,528
7.361493590999999,8546,4000,0
7.36448396600008,0,304,0
7.367548271000032,0,992,0
7.370592919000046,0,11810,0
7.374714734999998,15315,5921,11586
7.378570567000224,1296,2592,848
7.382408780999867,0,1584,1744
7.385487219999959,0,256,0
7.388752670000031,5969,544,0
7.392557311000019,12082,3184,6913
7.396459307999976,1824,12146,0
7.400551627999903,13987,3680,960
7.403670267000052,6321,4897,0
7.406709009000224,0,720,0
7.410672801000146,1024,2304,1200
7.414603966999948,0,8306,3232
7.417672847000176,6705,1808,4881
7.421655122000175,15635,3424,0
7.4256818919998295,6033,704,10242
7.429372725000121,11426,5841,0
7.432470261000162,800,2000,496
7.4366165480000745,2464,3328,2288
7.440410061999955,5617,22469,0
7.443708630999936,4961,3264,1120
7.447693473000072,5889,2208,9586
7.4515655390000575,3920,10226,0
7.454604502000166,688,288,5233
7.458648443000129,1888,4753,6289
7.462530970999978,12018,11202,0
7.4664481670001805,10546,1120,3952
7.469571279999855,0,9010,0
7.473444503999872,17396,2512,0
7.476655463000043,8530,8177,352
7.48044158599987,128,7377,0
7.48443598699987,1296,3168,11058
7.48758494599997,112,6689,0
7.491419282000152,3872,2400,0
7.494538077000016,2128,4209,3920
7.498409030999937,2272,5857,3632
7.502307410999947,12483,640,1600
7.506243181000173,2208,704,8402
7.509300345000156,1328,192,0
7.51341463000017,0,352,5377
7.5165652149999005,0,4385,528
7.520548011999836,9218,16612,0
7.523547292999865,8354,0,5425
7.527523763999852,3680,5889,0
7.531334257000253,10466,8674,656
7.534542350000265,48,688,0
7.538519804999851,9058,672,10466
7.541479901999992,4353,944,0
7.545440264000263,208,1680,8402
7.549478319000173,12387,4641,14595
7.552292677999958,6817,4353,0
7.556434417000219,15907,3344,0
7.55951689099993,1888,432,0
7.563488191000033,4561,2224,0
7.566414992999853,0,3600,0
7.570280989999901,7825,8722,0
7.574483516999862,4097,11890,8450
7.577538243000163,7793,7937,0
7.581320304000201,2848,4913,0
7.584622024000055,48,4657,5073
7.58872546900011,3344,20725,4817
7.592632228000184,2128,12787,7217
7.595613257999958,0,14115,0
7.599534910999864,3696,1584,11490
7.603659908999816,3840,624,4145
7.607450281000183,5041,3376,0
7.610675119000007,1024,2384,0
7.613556875000086,0,1024,0
7.617725068000254,8386,3024,3792
7.621631448000244,256,2864,0
7.624667414000214,0,2480,0
7.627725636999912,4785,2576,0
7.631485480000265,4257,7873,0
7.634600844000033,0,12050,0
7.638724658000228,2144,8962,704
7.642541480000091,512,7825,0
7.6455604860002495,5985,4449,1696
7.649419290999958,0,768,0
7.6526425709998875,6609,11554,0
7.656427269000233,0,2912,672
7.659736167000119,4449,21525,2656
7.664355990999866,32295,13811,10514
7.669886614999996,15203,5073,0
7.671374015999845,5537,2336,304
7.674266326000179,14291,9394,0
7.678266148000148,1376,11986,2288
7.682276826999896,3584,7457,0
7.685274412000126,2304,32,0
7.689238150000165,16996,6193,0
7.692292570000063,1072,6449,0
7.696295944000212,3696,5937,4481
7.700276754000242,7905,15619,1472
7.704264227999829,1104,20565,9986
7.707283965999977,512,2512,0
7.711275332000241,992,3536,0
7.714250937000088,0,560,0
7.7182513739999195,8290,5425,0
7.721301771000071,976,1024,0
7.725234659999842,3696,3536,0
7.728235261999998,0,1776,0
7.73124150700005,0,3296,0
7.734257462000187,0,176,0
7.738224331999845,0,528,496
7.741245019999951,2864,0,0
7.745238348999919,6289,11922,0
7.748258193999845,0,10770,3216
7.7522328670002025,848,5633,0
7.75525629699996,8738,176,0
7.759222207000221,1024,12178,0
7.763217187000009,16131,1888,8418
7.767687606999971,15923,24870,6961
7.770237148999968,1808,1312,0
7.774228880999999,6129,15347,5793
7.77823070300019,13939,9074,0
7.781506502999946,16,6433,0
7.784551605000161,0,3408,0
7.788480803999846,0,3072,0
7.791436923000219,1584,5121,0
7.794538678000208,0,10322,0
7.798539772999902,9362,3632,3376
7.802203226000074,4097,368,5889
7.805442415000016,0,2944,6545
7.809548306000124,624,1360,1312
7.81234322499995,4080,0,0
7.816414196000096,3040,1840,0
7.81957832199987,624,2192,0
7.823559917000239,8738,9442,0
7.827315388999978,2464,1184,0
7.830553997000152,3344,928,3792
7.834556469999825,4881,5713,4753
7.838561936000133,11522,6337,5409
7.8424292929998956,736,9074,1552
7.846444043000247,20741,15651,14611
7.849737713000195,4241,3584,0
7.853510234000169,5169,9474,0
7.856601827999839,336,5649,3536
7.860709841000244,6689,10450,0
7.864516657999957,12771,7697,0
7.867547210999874,880,0,1024
7.871560033000151,464,112,0
7.874641290999989,11410,5809,2000
7.87861937300022,11010,4032,0
7.8825000490001,12787,2848,0
7.885628429999997,3664,4577,0
7.889664975999949,1504,896,176
7.892726097999912,992,3024,0
7.896383796000009,3040,0,0
7.899591947999852,3248,3104,0
7.903564406999976,5313,14547,3424
7.907625643999836,0,13571,3440
7.910559772999932,656,1024,0
7.914434687000266,32,2048,3312
7.9176194659999055,8498,4145,2736
7.92168289600022,13571,1808,0
7.92547032199991,2480,2912,0
7.928784952000115,29991,656,0
7.932550299000013,9890,832,11186
7.936641674999919,11250,8049,1296
7.940613076999853,20661,2320,2128
7.9437478469999405,1024,2048,0
7.947635745999833,14307,11858,0
7.950609266999891,0,2384,0
7.954495709000184,528,12194,0
7.958445021999978,1760,3104,4945
7.961569501000213,4593,1856,0
7.964689028000066,0,48,0
7.968490647000181,17380,336,0
7.971581847999914,5713,2048,0
7.975496110000222,6977,19812,0
7.979656006999903,22181,8866,8482
7.982589982000263,0,1824,0
7.986632114000258,13155,5361,0
7.989617866000117,3136,11762,0
7.993580777000261,16468,2736,4129
7.997426194000127,13571,11666,0
8.000556275000235,8001,5025,0
8.004473583000163,28390,7441,0
8.008444511000107,30503,7697,0
8.011602578999828,9554,3728,0
8.015485097000237,1296,8306,0
8.018584397000268,3168,5537,320
8.02260404000026,4881,1712,5217
8.026676828999825,8177,2784,0
8.030424440999923,4321,2160,10002
8.03437874400015,13747,7665,7249
8.037405892000152,0,3120,0
8.041437322000093,9474,12130,15363
8.044521025999984,9746,25814,0
8.048431903000164,6401,4080,0
8.052383267000096,5377,1248,784
8.055504783999822,0,23301,0
8.058426646000044,0,864,1024
8.062320203000127,10242,3872,0
8.066373956000007,1200,3792,7713
8.069289953999942,3280,816,0
8.073277401000269,12883,1600,5153
8.07740972900001,6769,22117,0
8.081445537000036,26998,6417,9778
8.084574858999986,1184,1024,912
8.088517467000202,3840,7329,10354
8.092275682000036,1328,2992,0
8.09546136400013,4865,3024,0
8.099419209000189,14147,4977,5809
8.103548647000025,15763,15363,2256
8.107462406000195,7601,7761,14451
8.110466022999844,0,480,0
8.114486583000144,26646,13923,1024
8.118443243000002,11522,3104,15107
8.122532068000055,7089,10450,7665
8.126483465000092,6993,832,0
8.129529291999916,7425,832,6625
8.133517985000253,12018,1168,2480
8.137490438999976,13683,2592,0
8.141602347000116,15635,1504,2256
8.144686653000008,2832,3312,0
8.148553923000236,14419,9986,0
8.15175318799993,6945,1936,0
8.155496612000206,0,11186,0
8.158698934999848,9794,7089,0
8.162641874000201,768,2320,0
8.165570117000243,768,880,0
8.169484848000138,8177,5025,0
8.173620589000166,15619,2432,10930
8.176552659000208,0,1024,0
8.180512996999823,2336,5889,2480
8.183682121999936,400,912,0
8.187541647000216,13875,2016,5217
8.190755124000134,192,928,0
8.194704680000086,416,3248,4865
8.198556580000059,3840,1024,6097
8.201561676999972,2192,4000,0
8.20557686500024,9986,256,0
8.20862249899983,2400,352,0
8.212546280999959,12291,1808,0
8.216516799000146,2640,1296,1888
8.219733072000054,880,4929,5121
8.223695655000029,11586,3328,0
8.227538340000137,20693,976,6913
8.230730032999872,0,1792,304
8.233825765999882,0,5585,0
8.237537057999816,2800,2528,7345
8.241614201000175,19876,5201,2336
8.245431351000207,7777,8898,0
8.24936601499985,8450,2304,13491
8.252601945000151,28278,2160,0
8.25653002900026,0,272,6913
8.259667230000105,1392,1968,512
8.263641917999848,17908,4657,5297
8.267505667000023,1856,3840,0
8.270789221000086,13603,24053,0
8.274827841999922,17972,11762,0
8.278586631000053,11522,10098,0
8.281732647999888,6129,3360,0
8.285619735000182,7377,3376,0
8.288735094999993,1536,1280,0
8.292731558000014,848,8802,3056
8.296513312000116,4849,464,0
8.299766966999869,2720,1536,0
8.303688760000114,20741,6513,0
8.30748322699992,7457,5729,4961
8.31056463899995,3296,5361,0
8.31451135899988,3104,592,0
8.317711545999828,14227,3552,0
8.321681703000195,12274,896,1168
8.325412351000068,6177,3168,0
8.328530638999837,0,15395,0
8.332400026999949,12242,1760,0
8.335555585999828,9746,2048,0
8.339506823000193,1344,4609,1456
8.342608363000181,24229,4369,0
8.347065668000141,5873,2384,0
8.350474965000103,21413,3024,0
8.353425316000084,15875,2256,0
8.357341698000255,9058,2816,0
8.360404217999985,23909,736,864
8.364333905999956,1936,2304,0
8.368260643000212,16355,9778,0
8.37146368599997,7425,1632,352
8.375474329000099,1872,8930,2560
8.379471118999845,20212,12146,0
8.383321645000251,1296,7073,4449
8.386577907000174,24870,9570,0
8.390556396000193,4721,1776,0
8.393564752000202,17812,2224,0
8.397524389999944,9506,5153,0
8.401533371999903,33224,1712,0
8.404565408000053,5569,1296,0
8.408349577000081,24517,624,0
8.411576278000211,9618,752,0
8.415496967999843,21621,2336,0
8.418633395000143,4241,3456,0
8.422604845000023,8033,6209,0
8.425519084999905,13139,4897,0
8.42955537700027,14083,2992,0
8.433644470000218,4353,1472,0
8.436803564000002,11506,2816,720
8.44056726100007,33368,4401,0
8.443792988000041,3840,768,0
8.447534211999937,1792,1712,0
8.451582116999816,2064,1008,0
8.454684597999858,18020,3984,0
8.458438977000242,32183,4097,0
8.46161476799989,19444,8706,0
8.46555345600018,28390,5393,0
8.469575533999887,4561,2512,0
8.4726436320002,12082,1632,1024
8.47668355299993,8690,3264,0
8.48056810900016,1472,3024,0
8.483715861999826,2208,2816,0
8.487615277000259,3840,1664,0
8.490687038000033,4113,1088,0
8.49470361800013,11954,1728,2720
8.498484303000168,20709,1376,0
8.50173077799991,7345,2496,0
8.505501106999873,12162,1392,0
8.508585191999828,0,2160,0
8.512589079000008,512,1296,0
8.515611045000242,5905,2736,0
8.519423042000199,10674,528,0
8.522716936000052,7857,1120,0
8.52665319200014,3440,1376,0
8.52961754900025,15395,3088,0
8.533653713000149,2512,1280,0
8.536756097999842,256,3952,608
8.540510666000046,6689,3056,0
8.54455879499983,44394,944,2912
8.547812604000228,3328,1280,0
8.551415183000245,14291,528,0
8.554777030999958,6321,4705,0
8.55875960000003,26150,6145,0
8.562459284999932,5969,1056,0
8.565582623999944,10674,4097,0
8.568632246000107,0,2352,0
8.572552214000098,4849,4865,0
8.576476895000269,3920,3536,0
8.579583076999825,1824,2224,0
8.583517220999966,7985,496,3408
8.586636822999935,3392,1216,0
8.590676037999856,784,2544,0
8.593756931999906,688,7665,0
8.597483774000011,8306,2304,0
8.600602323000203,336,1936,5633
8.604769347000001,11938,6705,3328
8.608624298999985,816,4865,3248
8.612502602999939,6145,6321,0
8.615624752000258,4417,3328,0
8.619473747000029,4465,2976,0
8.62255846700009,17556,1296,0
8.62645897099992,14195,3184,0
8.629562122000152,8033,2160,0
8.633517656000095,10034,4913,0
8.636568576000172,0,1168,0
8.640421488999891,0,1024,0
8.643458270999872,0,3344,0
8.646624172999964,11106,1632,0
8.650508099000035,3488,3072,0
8.65430083199999,9474,1120,0
8.65735045700012,656,2224,0
8.661292085000241,3328,2128,0
8.66430716800005,1440,3152,736
8.668402664000041,0,2208,0
8.671510230999957,2384,1712,0
8.674493788999825,0,2144,0
8.678485320000163,1024,3568,1408
8.682518986000105,11522,2272,0
8.685548725999979,0,976,0
8.688562797000031,0,5137,848
8.692553460999989,4785,4641,0
8.695516232000045,1216,1232,0
8.699546714000007,6913,4289,0
8.702452174999962,832,2096,0
8.706574190000083,2816,2832,2992
8.710521662000247,432,256,0
8.713579563000167,27958,5681,0
8.717428790000213,368,16,0
8.720589918999849,7425,1808,0
8.724615847000223,3136,2736,944
8.727552774999822,0,1520,0
8.730530971000007,368,896,0
8.734682453000005,3824,4529,0
8.73779421900008,1792,1264,0
8.741697711000143,3312,3568,0
8.745546492999893,4449,2320,560
8.748693836000257,1232,1440,0
8.752546188999986,1904,464,0
8.755685908000032,4705,3952,0
8.759679871000117,2464,608,0
8.762634068999887,3568,2336,0
8.766665218000071,0,1776,432
8.76977400099986,0,1760,0
8.773649992000173,4593,1280,0
8.776764447999994,1872,3072,0
8.78061859699983,5329,2992,0
8.783822191000127,3056,2416,816
8.78755468700001,48,2304,0
8.790629840999827,320,1520,0
8.794655784000042,208,1504,0
8.797580209999978,3600,1920,0
8.80146516800005,3232,1776,0
8.804632369000046,768,1936,0
8.80856520799989,288,2320,0
8.81154193400016,2320,0,0
8.814548233000096,960,2128,0
8.818722788999821,4609,2768,0
8.821816149999904,5553,2448,0
8.82558191399994,3712,2048,1968
8.829653251999844,1024,1280,0
8.832789146999858,560,2416,0
8.836700362000101,4000,1280,0
8.839770633000171,4145,3104,0
8.843513490000078,720,2048,0
8.846762826000031,912,800,2752
8.850650655000209,0,3664,0
8.853758008000113,3568,5121,0
8.856811302000096,0,1344,0
8.860539253999832,752,1536,0
8.863799612000093,944,1776,144
8.867728035000255,816,5665,0
8.870646279000084,80,864,0
8.874669735000225,1312,1872,0
8.877625109999826,0,2704,0
8.880595387000085,768,1376,0
8.884779933000118,3008,4865,256
8.888584329999958,256,1200,0
8.891782887999852,2624,1520,0
8.894828364000205,0,2320,0
8.89861492,1328,7281,0
8.901865441000155,5841,2320,0
8.90559786699987,3984,4833,0
8.908825821999926,0,1456,0
8.912584408999919,1616,1840,0
8.915722712999923,1536,1840,208
8.919603519000248,9186,3168,0
8.923435131000133,8113,3184,0
8.926536817999931,0,1584,0
8.929618253000172,1904,2048,0
8.933477352999944,48,5889,0
8.936644800000067,3376,1024,720
8.940564424000058,3808,3536,0
8.94360292400006,0,1440,0
8.947351648000222,0,1552,0
8.95046417499998,2816,2736,0
8.954332114999943,9474,1456,0
8.957356392999827,0,2272,0
8.960377570000219,2448,1248,0
8.9645757950002,5537,3952,0
8.96760481399997,928,1360,0
8.971579033000125,3840,4241,0
8.974610011000095,352,1280,0
8.978600086999904,2800,5281,0
8.981524271000126,0,2208,0
8.985492266000165,0,2032,0
8.988599338999848,1072,2992,0
8.992577901000004,3952,1648,0
8.995430321000185,5217,2080,0
8.999538006999956,4769,2928,0
9.002326837000055,8354,1856,0
9.006542547000208,1120,1568,0
9.009595665000234,4977,1248,0
9.013566566000009,1904,720,0
9.016591039000105,8386,1760,0
9.019709936000254,0,32,0
9.023703628000021,672,768,768
9.026781825999933,336,1552,0
9.03054797599998,448,1056,0
9.033753521000108,2304,2032,0
9.037680202000047,1056,2192,80
9.040643988999818,5377,1120,0
9.044737915000042,9042,3136,0
9.047596488000181,0,1232,0
9.051686919000076,624,1792,0
9.054768352999872,6225,1840,0
9.058593091000148,352,2912,0
9.06163245200014,256,2416,0
9.065504231999967,2720,2592,0
9.06868460600026,2784,2048,0
9.072572863999994,11010,1552,0
9.075681787000121,1264,1968,0
9.079721355999936,5281,5457,0
9.083617342000252,33304,2000,0
9.0866024689999,1264,1968,0
9.090657517000182,15779,2464,0
9.093723460000092,7857,1632,0
9.097494048000044,19476,2224,0
9.100804402999984,7873,1824,0
9.104800328000238,5809,5393,368
9.108536022999942,1248,1536,0
9.11179601899994,14419,1952,0
9.115565169000092,5793,1744,0
9.118701408000106,7457,1280,0
9.122720697000204,32631,3184,0
9.12662531900014,5809,2080,0
9.129653358000269,4145,2224,0
9.133620519000033,2080,3328,0
9.136694958000135,27542,2864,496
9.14046039599998,5361,4769,0
9.143813347000105,3328,2528,0
9.147530655000082,3936,3152,0
9.151513942999827,25270,1760,0
9.154748271000244,6641,1856,0
9.15764303800006,0,1680,0
9.161749148000126,9810,4353,0
9.164692062000086,3664,2880,0
9.168654235999838,6577,3184,0
9.172612457000014,36136,976,0
9.175685433000126,18420,2384,0
9.17974649200005,13987,1872,0
9.182845052000175,32199,4369,0
9.186757127999954,2416,3840,0
9.190704592000202,10706,1520,0
9.193778213999849,4353,1264,0
9.196828719000223,0,736,0
9.200562674000139,37609,2528,0
9.203653210000084,8450,2144,0
9.20778643199992,17124,3056,0
9.211542162000114,22165,1280,0
9.214613826999994,6577,2144,0
9.21849522299999,1776,2768,0
9.221518019000086,0,2928,0
9.225417264000043,14835,2272,0
9.22862969200014,11058,1376,0
9.232530870000119,14339,1632,0
9.236405469000147,40809,1120,0
9.239572135999879,11522,1840,0
9.243386874999942,9330,1728,0
9.24642620800023,112,832,0
9.249421329000143,224,576,0
9.253317243999845,3632,2896,0
9.257257852999828,1776,2016,0
9.260582744000203,2368,2944,0
9.264323491000141,6033,3280,0
9.267544085999816,13571,1792,0
9.271557266999935,4257,768,0
9.274611366000045,27350,1840,0
9.278494224000042,1792,2448,0
9.281581973999891,21109,1760,0
9.28549614700023,6321,2992,0
9.28853032699999,0,2080,0
9.292370674000267,12579,2128,0
9.295489579999867,4897,2128,0
9.299573963000057,4513,4817,0
9.303565573000014,16163,2384,0
9.306597947000228,1136,1968,0
9.310590396999942,33528,2304,0
9.31350707799993,28022,3328,0
9.317622419000145,1168,6177,0
9.32072713100024,3328,2384,0
9.324738248999893,6129,4769,0
9.32854579900004,5729,1824,0
9.33162950399992,3760,2000,0
9.335425564000161,4769,1376,0
9.338688087000264,24437,2256,0
9.342690092999874,17684,3088,0
9.345733592000215,1472,1456,0
9.34963069000014,2208,6081,0
9.35263050399999,0,2512,0
9.35659571999986,11218,2208,0
9.3598080390002,9010,2480,0
9.363638371999969,4593,2304,768
9.366735757000242,6833,720,0
9.370775567000237,2304,2496,0
9.374628695999945,5425,1824,0
9.377787485000226,784,2320,0
9.381475723000221,6705,1328,0
9.38466487400001,12034,2080,0
9.3886299400001,1024,1392,0
9.391801461999876,5105,2304,0
9.395579369000188,8049,1616,0
9.398740011999962,4881,2720,0
9.40272007600015,18212,3248,0
9.405648234000182,1104,1680,0
9.409615032000147,3680,3280,0
9.413482037999984,7425,1824,0
9.416762210999877,2384,1888,0
9.42067097800009,3872,1904,0
9.423741646000053,3792,2672,0
9.426830461999998,0,1120,0
9.430543433999901,7937,4865,0
9.434627678000197,4369,2976,0
9.437762699999894,2816,3760,0
9.441667011999925,3664,1728,0
9.444767471999967,2512,3184,0
9.447668099000111,0,1312,0
9.451713475999895,1056,3840,0
9.454652349999833,0,1792,0
9.458734510999875,3328,1440,0
9.461796204000166,5041,2048,0
9.465481229000034,48,1248,0
9.46879621800008,272,880,0
9.472513523000089,3536,1712,0
9.475614158000099,1520,3088,0
9.479522816000099,3024,2656,0
9.48272987700011,5825,3168,0
9.485684450999997,0,912,0
9.489742862000185,1280,6913,0
9.492814021999948,2976,2272,0
9.496744505000152,1344,5393,0
9.500612863000242,3056,2384,0
9.503716455999893,4881,3520,0
9.506633200000124,256,768,0
9.510542600999997,560,8097,0
9.513594907999959,6929,1552,0
9.51754288300026,2720,8306,0
9.52060819899998,2704,1648,0
9.524559714000134,5377,3088,1024
9.528466538999965,624,1024,0
9.531583684999987,2336,1088,0
9.535545102000015,2192,3072,0
9.538639168999907,4497,2976,0
9.54242558399983,6481,2560,0
9.54552096999987,256,1888,0
9.54839531000016,0,672,0
9.55232491300012,3808,2416,0
9.555332172999897,704,1456,0
9.559501029999865,4097,3840,0
9.56362948900005,3136,2560,0
9.566615174000162,1872,1792,0
9.570547123999859,224,1072,0
9.573548040999867,4449,2160,0
9.577574251999977,1584,1504,0
9.580522065999958,4097,2736,0
9.584586788000252,128,1360,0
9.587612313000136,880,1696,0
9.591555359000267,1520,1232,0
9.59463321300018,3568,1536,0
9.598446720000084,2304,2672,0
9.601642875999914,4016,1280,0
9.605477733000043,2480,2672,0
9.608700839999983,672,1504,0
9.612458092999987,2496,2064,0
9.615676495000116,672,2864,0
9.619706405000215,3600,2608,0
9.622680011999819,4113,2016,0
9.62664618100007,0,2272,0
9.62973447100012,2016,2816,0
9.633708190000107,1440,1760,0
9.636806571999841,2096,1824,0
9.640571318000184,3024,2480,0
9.643612675999975,3312,2304,0
9.647457417000169,416,976,0
9.650784711000142,2256,2640,0
9.65467040500016,2384,800,0
9.657783604000088,4016,3552,0
9.661701156000163,2240,1600,0
9.664797720000024,1440,1424,0
9.66771008600017,0,976,0
9.671724096000162,1024,1824,0
9.674718114999905,1424,1808,0
9.67869384100004,3856,6657,0
9.681750172000193,3104,1744,0
9.68555302599998,4961,3184,0
9.688738435000232,272,2240,0
9.692738519000159,5841,3072,0
9.696546170000147,1456,2032,0
9.699780319000183,3728,2224,0
9.703700885000217,4865,3040,0
9.706678300000021,1040,1696,0
9.710735939000187,1120,2304,0
9.713703748000171,2640,2288,0
9.717742227000144,1712,1632,0
9.720806761999938,4609,2720,0
9.724742976000016,4545,2048,512
9.727885860000242,768,1008,0
9.731777237000188,7473,3104,0
9.735534757000096,1184,2192,0
9.738669698000194,5777,2512,0
9.742666148999888,3600,2448,0
9.745645801000137,2128,2864,0
9.749636029000158,448,1120,0
9.75269035500014,3536,1280,0
9.756532080999932,976,2544,0
9.759810374000153,4353,2560,0
9.763546024999869,2752,1168,0
9.76692638500026,288,2560,0
9.769860322000113,0,2128,0
9.77376392699989,1840,4977,0
9.776827972999854,0,1792,0
9.780653110999992,5425,2480,0
9.783789606000028,1856,2272,0
9.787725660999968,1360,768,0
9.790797858000133,1184,976,0
9.794568660000095,3392,1632,0
9.797651556999881,1968,2032,0
9.801507939000203,1264,1632,0
9.804831633000049,2256,1040,0
9.807649961000152,0,512,0
9.811540652000076,4048,2800,0
9.815448821000246,1040,3728,0
9.818614427999819,2848,3360,0
9.822486587000185,3168,1968,0
9.825545132000116,816,3376,0
9.829443872999946,256,2048,0
9.83256338000001,3840,1824,0
9.83560674399996,0,1984,0
9.839434396999877,3568,1280,0
9.842410456999914,5201,2560,0
9.846382104999975,992,6145,0
9.849377540000205,0,1440,0
9.853611762000128,3840,1440,0
9.856564296000215,2480,2144,1072
9.860638723000193,5985,3920,0
9.864357712000128,2592,1824,0
9.867651493000267,1952,1808,0
9.871591081000133,720,1024,0
9.874602518999836,3840,1584,0
9.878598029999921,1456,736,0
9.881581713999822,4337,3072,0
9.885445032000007,1120,2256,0
9.888615326000036,0,2464,0
9.891549250000025,5377,2736,0
9.895304182000018,768,6401,0
9.898636945999897,4865,1296,0
9.90258117500025,6593,6945,0
9.905475568999918,0,1840,0
9.90871888799984,0,880,0
9.912712077999913,1552,5313,0
9.915575605999948,96,1440,0
9.919724329000019,3664,2288,0
9.922760902999926,5345,2576,0
9.926758514000085,160,6033,944
9.929884892000246,0,1328,0
9.93375803500021,3056,1264,0
9.936859413000093,256,1104,0
9.940759568999965,3744,2272,0
9.943853712999953,2464,2416,0
9.947564795999824,0,6145,0
9.95080744400002,1648,2752,0
9.95460376400024,2352,1904,0
9.957664714000202,1792,2736,0
9.961719264999829,2000,2016,0
9.964919774999998,1024,1280,0
9.968550383000093,0,928,0
9.971737158999986,2992,2928,0
9.975384889999987,1104,2144,0
9.978562171000249,3168,3152,0
9.98261050300016,4609,496,0
9.985720149999906,1568,2224,288
9.98966054399989,0,1504,0
9.99276507500008,6097,2576,0
9.996742265000194,2464,2320,0
9.999814981999862,2576,2064,0
10.003674420000152,4337,2128,0
10.006796834999932,992,1200,0
10.009841688000051,0,2224,0
10.013605936000204,4016,5537,0
10.017022488999828,208,2304,0
10.020602702999895,2752,7937,0
10.023859062000156,1984,2784,0
10.027627317000224,3744,3504,0
10.03072856000017,800,1344,0
10.03472792399998,0,5681,0
10.03785380499994,2816,2464,0
10.041762684999867,3696,2192,0
10.044820465000157,1024,1248,0
10.04872695999984,0,1024,0
10.05182430800005,1520,1312,0
10.055557016999956,1872,1888,0
10.058718967000004,976,1280,0
10.062757050000073,3296,1840,0
10.065641272999983,1376,4193,0
10.069499764999819,672,1232,0
10.07278435599983,3056,1632,0
10.076720174999991,1280,3088,64
10.079837288999897,5345,2416,0
10.083743868000056,5377,3152,0
10.086808388000009,32,896,0
10.0898005250001,0,1568,0
10.093716331999985,6705,3856,0
10.096784118999949,496,3040,0
10.100762614999894,1840,5041,0
10.10452535100012,1840,1728,0
10.107563761000165,2304,3120,0
10.11065431599991,928,1456,0
10.11455689000013,3600,2304,0
10.118434936000085,3024,2816,0
10.121589404000133,4177,2224,0
10.12547223799993,1968,3328,0
10.128613160999976,304,1504,0
10.132502290000048,4016,1872,0
10.135602000999825,224,1456,0
10.138609691000056,672,992,0
10.142383196000083,5841,5649,0
10.145405440000104,496,1184,0
10.149340305999885,0,5889,0
10.15232538400005,2320,1536,0
10.156294806000005,544,3168,0
10.15932280900006,4625,2704,0
10.16336253999998,3856,2704,0
10.166326604999995,688,1632,0
10.16933163800013,0,448,0
10.173330420000184,2128,7345,0
10.17636669400008,768,1040,0
10.180322440000054,3024,7697,0
10.183300830000007,2480,944,0
10.187271710000005,0,8033,0
10.19033404799984,560,2288,0
10.1942909039999,2912,1792,0
10.197332578999976,1584,2128,0
10.20126656399998,1856,464,0
10.204279252000106,1424,2784,0
10.207349647000228,0,1488,0
10.211293934999958,528,3840,0
10.214339511000162,256,1280,0
10.218275549999817,4449,3488,0
10.221315238999978,2816,2128,0
10.22528776900026,1072,5505,992
10.228307746000155,0,1488,0
10.232278004999898,2304,5665,0
10.23533727899985,256,2048,0
10.239348653999969,4881,7697,0
10.242347137000252,4193,2064,0
10.246366991999821,5025,4401,96
10.249348986999848,64,1824,0
10.25335601300003,2000,5521,0
10.256369782000093,1568,1952,0
10.260350247000133,4129,2864,0
10.26430435500015,1904,2336,0
10.267375339999944,1392,1616,0
10.270347645000129,0,736,0
10.27433741799996,672,2192,0
10.277344468000138,2560,1952,0
10.281341695000265,1104,512,0
10.284341443999892,960,1728,0
10.288293551000152,368,1392,0
10.291316700000152,2672,2032,0
10.29527956999982,800,2144,0
10.298330949000047,4401,2960,0
10.302327345999856,5281,1744,0
10.305349635999846,704,1760,0
10.313395581999885,736,1280,0
10.313712038000176,5377,2304,0
10.317961319000005,560,2560,0
10.319325627000126,4497,2048,0
10.323305047999838,2384,1824,0
10.326345590000074,1216,1088,0
10.329360931999872,0,2224,0
10.333300532000067,7649,3552,0
10.33632402100011,768,2128,0
10.340292410000075,8498,4465,0
10.34427191199984,2608,2352,0
10.347353532999932,2128,2864,0
10.351276979999966,1808,1760,0
10.354326676000255,3136,1120,0
10.358343755000078,3280,2768,0
10.361334101000011,1728,2304,0
10.365308799000104,1040,1600,0
10.368370882999898,0,1392,0
10.372338259000117,1440,1488,0
10.375309007999931,3792,2592,0
10.37931559100025,3168,1248,0
10.382313103999877,5185,2560,0
10.386281126000085,304,880,0
10.389296865000233,1552,3088,0
10.393297834999885,3504,1328,0
10.396335170999919,2256,2272,0
10.40027540500023,3152,1360,0
10.403322309000032,288,1152,0
10.406339429000127,240,0,0
10.410296175999974,0,2816,0
10.413308654000048,3776,2064,0
10.416345509000166,48,1792,0
10.42032909999989,4641,2816,0
10.424257708999903,2304,1888,0
10.427281710999978,256,2240,0
10.431321796000248,1024,1024,0
10.43431760400017,2496,2640,0
10.43830112400019,3584,2720,0
10.441299086000072,3136,1120,0
10.444342554999821,0,1584,0
10.448314211000252,1792,4321,0
10.451312295000207,2464,768,0
10.45529791800027,432,5553,0
10.45835525800021,3584,2640,0
10.462251040999945,6305,6145,0
10.465359934999924,0,1840,0
10.469332194999879,272,1472,0
10.472392141,4833,2032,0
10.476292977999947,0,2880,0
10.479317321000053,5457,3712,0
10.483317703000012,4449,2784,0
10.486312033000104,512,1456,0
10.489356175000012,0,1344,0
10.49337044799995,3056,1728,0
10.496359843999926,1584,2496,0
10.500315004000186,4897,3392,0
10.503378219999831,2560,2832,0
10.50735594300022,432,4849,0
10.510403231000055,1472,1232,0
10.51440028900015,4032,6401,0
10.517409905000022,3568,2544,0
10.521361651000007,3840,3680,0
10.52438875300004,816,1792,0
10.528386686999966,5137,3824,0
10.532361651999963,2784,1936,0
10.535332767,2912,3072,0
10.53934475799997,5105,2624,0
10.542384773999856,6401,2784,0
10.546336611000243,304,1472,0
10.549351872999978,560,2544,0
10.55334091099985,3072,2416,0
10.556355298000199,2608,2816,0
10.560337751000134,2880,2064,0
10.563365803000124,3424,2400,0
10.567308556000171,96,1008,0
10.570358887000111,1424,1968,0
10.57433819500011,1984,960,0
10.577389297000082,3600,2512,0
10.581347594999897,1184,1616,0
10.584342178000043,1216,2400,0
10.588319401000263,240,1840,0
10.59136627099997,1696,2112,0
10.59530705599991,1792,1792,0
10.598380501000065,3296,2160,0
10.60235544399984,2960,2304,0
10.605373406000126,432,1792,0
10.609315459999834,144,1680,0
10.612368062999849,2800,2272,0
10.616339096000047,64,3376,0
10.61936328999991,4641,3120,0
10.623346092000247,3424,1296,0
10.626336504999927,528,2096,0
10.629374879999887,0,960,0
10.63339594199988,1488,3024,0
10.636410490999879,1136,1616,0
10.640394660999846,5665,1040,0
10.643386251000265,2736,1696,0
10.647389462999854,240,5649,0
10.65037310200023,768,1776,0
10.654354155999954,1440,1584,0
10.657377816999997,1840,2496,0
10.661387097999977,3328,7969,0
10.664388792999944,0,2336,0
10.667412901000262,0,896,0
10.671392402000038,1552,6465,0
10.674422952999976,1328,2224,0
10.678399118000016,5841,3024,0
10.682381404999887,2128,1904,0
10.685372709000148,2368,2640,0
10.688420913999835,0,2112,0
10.692391155000223,1280,2160,0
10.695342500000152,2992,2240,0
10.699396864999926,4465,5697,0
10.703384186000221,4016,1712,0
10.706395696000072,4145,3504,0
10.709414045999893,0,1280,0
10.713391252999827,0,1616,0
10.716347033000147,2256,2640,0
10.720348943999852,2816,2608,0
10.723374435000096,3888,3008,0
10.727355115000137,256,608,0
10.730360581000241,1712,1792,0
10.734381272000064,3360,2048,0
10.73739876799982,2320,1984,0
10.741384467999978,1808,1216,0
10.744298896000146,2208,1056,0
10.748355672999878,144,2528,0
10.75137433000009,2416,1328,0
10.755345424000097,1040,1792,0
10.758380649000173,3200,2304,0
10.762336642000264,6609,2560,0
10.765343023000241,960,1568,0
10.769315442999869,256,2640,0
10.772377535000032,2400,2320,0
10.776364156,816,2528,0
10.779352973000186,5265,2976,0
10.783302866000213,3760,3360,0
10.786351677999846,672,1712,0
10.790631369000039,1488,1168,0
10.793416640000032,3264,832,0
10.797355500999856,592,2208,0
10.800372549000258,1904,1952,0
10.804352215000108,2512,2912,0
10.807372005000161,0,1280,0
10.810367465000127,0,3328,0
10.81436905999999,224,2480,0
10.817318045999855,3120,2480,0
10.821410166000078,2928,1056,0
10.824334274000194,1888,1712,0
10.828356160000112,0,2368,0
10.831381945999965,2160,2224,0
10.834404993000135,0,1280,0
10.838376406999942,7105,4385,0
10.842350915000225,4913,3536,0
10.845349991000148,2352,3312,0
10.848362341000211,0,1136,0
10.852354440999989,2064,6833,0
10.855441798999891,384,2704,0
10.85937293500001,8738,3184,0
10.862310331000117,5377,2496,0
10.866379626000253,1424,6113,0
10.86937770700024,2816,2816,0
10.873319176000223,5793,2816,0
10.877270904999932,2320,3168,0
10.880370195000069,6481,3136,0
10.884351832999982,5521,2144,0
10.887369368000236,2128,1616,0
10.89135685500014,1424,1904,0
10.894374101000267,2768,3760,0
10.89829214800011,11698,2048,0
10.90138798299995,11522,1312,0
10.905364767000265,21701,4849,0
10.90935962399999,12883,2864,0
10.912401647000024,17380,1520,0
10.916397408000194,3856,2208,0
10.919374693999998,4497,2064,0
10.923345959000017,336,6673,0
10.926412632999927,6049,1728,0
10.930378137999924,8562,4385,0
10.933399482999903,960,2736,0
10.937378101999911,12547,6897,0
10.941373836999901,7073,1536,0
10.94431901500002,2928,3328,0
10.948294928999985,5297,1440,0
10.951367208000192,32007,3088,0
10.955334801999925,34040,1520,0
10.958367084000201,19124,2496,0
10.962355866000053,15619,4064,0
10.966313538000122,416,1280,0
10.969312836999961,1776,1760,0
10.973330149000049,17156,2624,0
10.976368827999977,14371,1888,80
10.980326465999951,10850,4657,0
10.984323958999994,1600,1872,0
10.987324510000235,1136,1536,0
10.990371689999847,48,1280,0
10.994360338000206,28422,6753,0
10.998280814999816,5569,2736,0
11.001402953000252,15107,2048,0
11.005381982000017,6913,864,1808
11.009327028999905,12547,816,0
11.012395455999922,5329,4337,0
11.01637071999994,12050,1520,0
11.019368815000234,2656,2480,0
11.023335966000104,1344,2464,0
11.026401035000163,688,1472,0
11.029431091999868,0,3600,0
11.033386638000138,19044,1776,0
11.037360197999988,1120,1552,0
11.040389199999936,2848,1264,0
11.044364039999891,1984,1552,0
11.04739676600002,5537,2144,0
11.051349145000131,2048,1680,0
11.05440895799984,1760,2560,0
11.05837416500026,8418,3328,0
11.061406459999944,11170,1488,0
11.065363511000214,10162,3616,0
11.069368364000184,4305,1200,0
11.072322044999964,10770,2304,0
11.076369227000214,4897,3024,0
11.079379015000086,7521,1552,0
11.083334457000092,5937,2000,0
11.086342190999858,6689,2032,0
11.09032495800011,3232,7185,0
11.093364270000166,80,1232,0
11.097401765000086,0,3648,0
11.100389327999892,5425,2960,0
11.103444672000023,784,992,0
11.107428565000191,4977,9186,864
11.11141113099984,12323,2224,0
11.114434757000254,16724,3568,0
11.118416998000157,6913,5489,0
11.122410730999945,17396,2352,0
11.125414646000081,11874,2272,0
11.12934078499984,6561,1776,0
11.132436677999976,4945,6705,0
11.136440195999967,5809,400,0
11.13934179700027,13011,624,0
11.142408867000086,0,240,0
11.146399780000138,4881,4337,16
11.150362876000145,9938,672,0
11.153441615000247,15443,2304,0
11.157387487000051,1072,2048,0
11.160439850999865,3120,2720,0
11.164420382000117,5889,288,0
11.167432328999894,5393,1200,0
11.17141491600023,24229,880,0
11.17440933800026,7729,2032,288
11.178399955000259,7953,6881,784
11.182428341000104,18820,1616,3536
11.18641549899985,688,3328,6145
11.189424704999965,0,2512,0
11.19243967300008,336,736,0
11.196344621000208,1504,6129,1488
11.200370213000042,11250,6433,0
11.204370946999916,3648,6689,13875
11.207325891999972,6001,3840,3840
11.211334504000206,13107,2752,0
11.215287678000095,6673,688,0
11.218322944000192,4097,2000,1792
11.222409373000119,4193,8290,0
11.22543507399996,21877,2208,0
11.229376529000092,1152,3488,0
11.23332031100017,5105,1456,0
11.236386233999838,8738,3072,0
11.240351765000014,624,7105,0
11.243387971000175,7521,1568,0
11.24737240200011,0,816,2816
11.250349799000105,0,2736,0
11.253390666000087,704,224,0
11.257382033999875,10002,416,6913
11.261349051000252,6177,4113,0
11.264394221000202,4145,2224,0
11.26839238399998,7361,544,0
11.271423397000035,9986,3024,0
11.275343965000047,8145,3088,0
11.27840963000017,992,2880,0
11.282419638000192,9234,2416,2848
11.286412514999938,33448,4897,2864
11.289401953999914,0,2576,0
11.292441349,208,3584,0
11.296403807999923,0,12835,0
11.29942968100022,0,6449,0
11.303416473000198,3584,2000,800
11.306397596999886,32,5361,0
11.310373177000201,6497,544,0
11.313423819000036,656,1200,0
11.317399800000203,416,1280,5169
11.32044456299991,176,3120,0
11.324420275000193,9986,32,928
11.328383135999957,1328,3920,2672
11.33143870799995,15459,1648,0
11.335414750999917,6817,592,0
11.33842374400001,1552,2864,0
11.342410983000264,15315,288,0
11.345433961000253,3072,1200,0
11.349424305999946,1856,4705,0
11.353389316000175,9922,2064,2208
11.35643348800022,8049,2304,0
11.360387687000184,22277,784,1360
11.364288586999919,18900,2992,0
11.367393254000035,7777,2304,0
11.37040215900015,0,5745,0
11.374404092000077,17620,3792,10578
11.3783374919999,8402,4577,0
11.381403684999896,9986,6241,0
11.385386681,4993,3536,0
11.38837583700024,6097,4241,0
11.392362834999858,7217,2032,0
11.396377335000125,7489,11746,0
11.399376706000112,27254,1136,0
11.40337969400025,10242,976,0
11.406401722999817,0,2384,1840
11.410387035999975,16436,9218,0
11.413379475000056,4465,9442,0
11.417389864000143,6497,4353,0
11.420407558000079,1984,2896,0
11.424400222000259,13939,1264,0
11.428356477999841,28727,1360,0
11.431407247000152,9826,1136,0
11.435382477000076,4817,3616,0
11.439378489999854,11282,608,1872
11.442375887000253,5233,976,0
11.446418319000259,7409,1056,0
11.449353224999868,10850,1040,992
11.45331519399997,5617,7889,0
11.457388285999969,23813,9218,448
11.461324395000247,5153,10946,944
11.464373687000261,14595,5153,0
11.468335854000088,20757,12851,0
11.471342912000182,5217,6865,0
11.47534204800013,0,6913,576
11.47839891500007,1760,10930,0
11.48236622000013,5377,22037,0
11.486380162999922,5137,800,0
11.4893855360001,14899,9810,4097
11.493373962000078,16243,4881,0
11.497362830999919,1824,1616,3296
11.501349227999981,1792,1296,6401
11.50436165400015,22293,4833,0
11.508334972999819,6961,13715,0
11.51234951000015,17876,8306,144
11.516347907000181,34360,14083,5249
11.519375556999876,1168,576,0
11.522398665999845,0,5265,0
11.52635966400021,592,6241,0
11.529413381000268,2288,5889,0
11.533398931000193,3840,7601,0
11.536445415999879,0,1312,3648
11.540428252999845,11762,2448,496
11.544416554000236,19924,6225,3824
11.548343753000154,9746,672,0
11.551404469999852,2192,3792,0
11.555380554999829,368,1184,0
11.558395391999966,5937,2896,3344
11.562382786999933,29367,496,0
11.565414448999945,0,5681,0
11.569384186000207,256,4865,2016
11.57335403900015,27958,448,3776
11.576718538000023,208,2752,0
11.580393943000217,13683,5921,0
11.583413397000186,20997,13539,0
11.587416507999933,3088,12659,0
11.591412454999954,15411,5889,3312
11.595362565999949,11570,6545,384
11.598418293000123,5073,2096,0
11.602417449999848,1232,352,1296
11.606412166000155,11186,13859,1056
11.609424088000196,1024,4048,0
11.61388948900003,8690,12291,0
11.617404848000206,3504,2000,0
11.620389104999958,0,14435,0
11.624381337000159,528,2672,14739
11.628371915000116,9266,14547,4177
11.631440659999953,8770,832,5393
11.635439697000038,11522,6641,5089
11.639390932999959,4465,1696,1120
11.643360812000083,928,1888,0
11.646814737000113,11170,1632,0
11.649480347000008,0,736,0
11.653417109000202,0,1456,0
11.656441170000107,0,800,0
11.65945091399999,0,16,256
11.66339318700011,160,2640,0
11.666392497999823,4849,1712,0
11.66943424200008,0,7281,0
11.673399762999907,960,5665,0
11.676427369000066,0,16,1488
11.680427925000004,14179,14835,4609
11.684779917000014,1392,1840,0
11.68743249299996,7825,6913,0
11.691418039999917,1936,4817,672
11.694435583000086,0,880,624
11.698401276999903,9778,23301,3984
11.70239686800005,7745,11938,3328
11.706362253999941,7281,2784,0
11.709446598999875,400,8850,208
11.713661329999923,6577,6929,0
11.716456436000044,13347,11106,0
11.720465507999961,7425,10274,5409
11.724438073999863,4080,13331,16
11.728419554000084,9474,5377,0
11.731439560000126,1328,5393,0
11.735391640000216,1712,4689,0
11.738382052999896,10706,3472,0
11.742373296000096,2896,2848,0
11.745418771999994,2048,4433,0
11.74944804200004,11602,12339,1792
11.753431789999922,2432,1696,0
11.75644467300026,208,784,560
11.760456486999828,5265,5297,0
11.76348316900021,2064,2672,0
11.767770577000192,2992,3888,0
11.770471445000112,0,10642,0
11.774418434999916,96,8274,2416
11.7783994360002,0,1792,14259
11.781426694999936,6401,8978,0
11.785413035000147,6913,7649,2400
11.789417841000159,10546,14003,7761
11.79241373700006,0,19716,0
11.79641186300023,15571,6817,10546
11.800407706999977,1568,7985,0
11.804395369999838,15539,2544,3328
11.80839587399987,47035,29943,13843
11.811434488000032,5393,208,0
11.815433848999874,2288,1520,10034
11.81843303100004,16,7201,0
11.822408457000165,9922,9890,0
11.825608999999986,112,384,0
11.829382311000245,6865,7569,0
11.832452208000177,8434,3216,0
11.836428724000143,4785,6849,1968
11.84037891700018,13939,1712,0
11.843414959000256,7937,2288,0
11.84735056999989,0,12819,0
11.850376225000218,9618,8450,0
11.854433927000173,3552,2400,3424
11.858664128999862,7793,12467,1936
11.862404159000107,1456,3296,15283
11.865414108000095,1280,3040,0
11.869409816999905,0,1088,4689
11.872447209000256,1232,7537,0
11.876451181999983,12915,6161,0
11.880385414000102,368,2368,592
11.88344756000015,0,11922,12899
11.887413000999913,6897,7009,0
11.891383773000143,272,2608,3680
11.894437108000147,7025,19348,0
11.898390435000238,8610,8001,1280
11.902408403000209,2928,9826,5041
11.905431881999903,4513,768,0
11.909432185000242,19540,5985,2352
11.91342615800022,2928,13619,7313
11.917399081999974,7169,21765,0
11.921390366000196,8033,15667,2848
11.924437325999861,3168,4273,0
11.928409541999827,18276,15155,0
11.931462693999947,21525,2192,0
11.935444190999988,10514,4353,0
11.939754701999846,2336,7169,0
11.94253741700004,2304,6433,8450
11.946460892000232,10994,208,0
11.950424139999996,3632,656,5153
11.953752438000265,2224,7777,0
11.957440046000102,0,4849,1344
11.96046786800025,7169,9746,1904
11.964445301000069,256,4145,0
11.967465661999995,1792,6433,0
11.971671224000147,0,2592,0
11.974460206000003,6817,2512,0
11.978415565999967,1600,0,3488
11.98148012799993,1136,752,1456
11.985448064000138,2816,2416,0
11.989428236000094,5985,1680,0
11.992486512000141,1056,9698,12723
11.996369221999885,14611,10162,2768
12.00038557400012,2064,7969,0
12.003401274000225,8177,288,0
12.007375494999906,9282,4961,0
12.010463078000157,192,5489,0
12.014426083000217,3072,7217,0
12.017454984999858,192,2832,0
12.021465671999977,0,6385,0
12.02445565500011,9474,4609,0
12.028405819,6993,1376,0
12.031461892000152,8722,8370,0
12.035441792000256,976,6417,0
12.038441537999915,1216,1024,1024
12.042452656000023,1376,2048,0
12.046453200000087,96,6497,1904
12.049430909999955,0,688,0
12.052470718000222,2832,3168,0
12.056448698000167,2784,5953,0
12.060438718000114,8466,2096,2128
12.063449496999965,0,2272,0
12.06742790599992,2016,768,480
12.070424210000056,0,1056,0
12.073471270000027,3520,256,0
12.077459055999952,12707,1392,0
12.080491106999943,16,1680,544
12.0844775139999,5521,3840,6561
12.088420366000264,12034,6289,800
12.092428916000244,3328,1024,176
12.09641633299998,36104,8866,1952
12.099473876000047,5073,9442,800
12.103456040999845,304,8914,1504
12.107419213999947,19028,1584,0
12.110471053999845,18596,2464,0
12.114464454999961,1280,1536,0
12.118415362000178,16980,7937,3184
12.122435002000202,15827,2048,8546
12.125463126999875,5713,5025,0
12.1284555430002,0,5073,0
12.132430146999923,14051,27942,0
12.136426762000156,10018,2416,0
12.139469510000254,7457,48,2320
12.143406213000162,4401,8482,0
12.146467663999829,7505,144,0
12.150405917000171,0,5201,0
12.154403615999854,5841,12739,2976
12.15746561800006,3152,6705,1440
12.16145785200024,4497,1584,1024
12.16544278299989,3504,5121,8770
12.168439031000162,0,1168,0
12.172413776000212,0,4433,960
12.17546165900012,3168,1344,0
12.179390972999954,2912,1280,0
12.18246080400013,19588,448,0
12.186411649000092,784,6145,0
12.189432529999976,0,8113,7505
12.193437813999935,65535,11458,0
12.196473873999821,592,256,0
12.200427895999837,29751,1424,96
12.204438352000125,10930,6161,14387
12.208429481000167,7825,3568,1280
12.211476634000064,3440,176,3680
12.215393492000203,9218,11106,0
12.219400652999866,12963,4593,0
12.222448258999975,0,1376,0
12.226413033999961,8802,7281,0
12.229457685999932,3488,4337,0
12.233444923000206,8882,9842,6833
12.237422215000151,160,10162,2128
12.240445359000205,11186,2480,0
12.244381916999828,2320,592,0
12.247477306999826,13571,8754,0
12.251441771999907,0,6689,0
12.254446569000265,768,1248,256
12.258440982000138,2304,192,1360
12.26239006700007,4289,2208,0
12.265406926000196,1728,560,0
12.26936220000016,3168,3792,0
12.272409797999899,976,1424,0
12.276459933999831,8962,1824,1456
12.279483603000244,7073,3952,0
12.283458609000263,0,11922,800
12.286482736999915,9954,14515,0
12.290433633000248,8674,4145,0
12.293475773999944,0,4913,0
12.297459044999869,3984,5921,0
12.300476506999985,9010,1376,0
12.304487980999966,2912,3312,8946
12.308384276000197,15907,8914,0
12.31148469200025,2096,9474,0
12.315439060000244,6129,10530,8450
12.319405520000146,5809,15651,0
12.322454668999853,10274,1968,0
12.32644634899998,1344,12130,0
12.329431903000113,0,1760,816
12.333467977000055,3328,3840,0
12.337454060000255,2096,944,5601
12.341446684999937,2480,1456,4353
12.344479185000182,1792,4561,0
12.347497485000076,5169,96,0
12.351480282000011,4977,5665,0
12.355476607000128,5937,11218,2912
12.35945113300022,960,3248,2992
12.362516298000173,4593,13027,1024
12.366445403999933,864,2976,0
12.369495659000222,2096,1424,0
12.373475292999956,0,11938,3216
12.377461115000187,6961,592,6161
12.381453538000187,8097,1168,6369
12.384484893000263,1600,2112,0
12.388442435999877,11410,15379,0
12.392452465000133,23301,512,656
12.395470492000186,5409,4080,0
12.399446647999866,10194,4977,0
12.402508951000073,6097,0,1584
12.40647739699989,2320,2976,0
12.409498729999996,0,4097,1776
12.41347430399992,832,2384,0
12.41647296300016,0,12947,2480
12.420488576000025,4177,1888,16932
12.424457813000117,12307,12643,912
12.428435405000073,3328,9618,0
12.431420965000143,0,2016,0
12.435417099999995,2608,2224,1008
12.439421717000187,10978,3104,7249
12.44245216499985,9698,11586,0
12.445508194000013,0,1488,0
12.4494428590001,6049,1952,0
12.452438131000235,6401,416,0
12.456423223000002,6401,3792,736
12.460440134000237,768,8017,0
12.463463567999952,11154,768,0
12.467420594000032,256,2304,0
12.47046433200012,368,8530,8033
12.474434657000074,5985,4609,0
12.477433159000157,0,2064,2592
12.481413167000028,0,17300,0
12.485422399000072,848,1152,11442
12.488454463999915,1104,6001,5457
12.492437199000051,19236,9122,0
12.496403350000037,5857,5313,320
12.500404086999879,13171,3088,1424
12.503458208000211,1488,1232,7601
12.507434100999944,12018,0,96
12.51045308599987,3072,1872,0
12.514438702000007,0,2608,2080
12.518416525000248,6433,304,4097
12.521428155000194,6769,400,2304
12.525411266999981,4961,13491,0
12.528524894999919,0,400,0
12.532446772000185,3328,7185,0
12.535446396000225,2080,6337,0
12.538464340000246,4016,0,0
12.542422135999914,3040,12130,0
12.546419204999893,17812,768,4048
12.550381443999868,0,15219,6401
12.553504931000134,11154,3120,3328
12.557493166999848,9650,9218,3488
12.561366138000267,1904,5857,0
12.564496514999973,8610,416,624
12.568461284000023,13043,768,6401
12.57243347199983,7857,80,0
12.57546477699998,14883,1776,3840
12.579453680999904,11426,10994,0
12.583416230000239,14771,10210,0
12.586441455000113,0,432,0
12.590438246999838,5937,400,10242
12.593476822999946,14275,10370,0
12.59745802999987,1040,2096,944
12.601438887999848,2816,1280,0
12.604444669000259,4769,3088,0
12.608465710000019,17076,12403,0
12.612444073999995,3936,10994,0
12.615499922000254,11314,8113,0
12.619471877000251,3728,528,0
12.622495848000199,6945,1280,0
12.625501643000007,0,2016,0
12.629437456000232,1776,4721,0
12.632488706999993,0,0,0
12.636480396000024,1216,5937,0
12.639501943000141,11298,592,3440
12.64348191099998,15939,6769,0
12.646497530000033,0,4385,480
12.650393811999948,12899,25782,8033
12.654431449000185,9762,14307,7969
12.658482264000213,6465,6097,6369
12.662491864000003,576,7537,3072
12.665489808000075,2864,3344,0
12.669487698000012,0,1792,3408
12.672457699999995,608,1776,0
12.676436081000247,15043,3328,2656
12.680477630000041,10274,1456,9298
12.68447898400018,7089,5857,560
12.68847605200017,13395,9058,8402
12.69151408100015,8498,3744,0
12.695413030000054,0,17652,0
12.69851670800017,8802,2832,5873
12.702493851999861,10098,1056,0
12.706460279000112,0,2880,9730
12.709501776000252,2816,3264,3344
12.713438388000213,1072,0,1952
12.717412291000073,7473,3296,9554
12.720438127999842,9250,5889,0
12.724487242000123,2384,2144,768
12.727492715000153,3120,0,0
12.731460308999885,8338,4097,3216
12.735455022000224,9058,5889,5377
12.738478428000235,12755,768,0
12.742437645999871,0,11698,0
12.746435248000125,10770,352,14035
12.749505548999878,17428,17012,0
12.753472803000022,816,1328,0
12.757430631000261,8450,15187,2160
12.760516219000237,2640,2816,592
12.764461653000126,3376,2336,1184
12.76845716400021,2320,6625,4177
12.772432493999986,2352,6945,6881
12.775466600000073,10994,5169,0
12.779429304000132,16916,6689,688
12.78343186400025,3984,736,3936
12.78644427800009,4497,480,0
12.790440750000016,10930,14947,3344
12.794469403000221,7601,624,1440
12.797478618000241,4865,8402,0
12.801426868999897,6161,16628,3856
12.805435116999888,0,4016,0
12.808443055000225,7873,5169,0
12.812442318000194,4705,112,6513
12.815480505999858,608,3504,144
12.819494216999828,7969,8450,288
12.82343109600015,12403,3232,0
12.82644224500018,0,256,2560
12.830404352000187,240,6705,0
12.833717397999862,4785,4673,16
12.83769269000004,2656,1744,0
12.840752850000172,7489,1760,0
12.844741210999928,1792,3568,0
12.848451769999883,15283,14963,0
12.851763742999992,7057,176,5953
12.855608490000122,3760,10146,1584
12.859789565000028,12146,272,1424
12.863702184999966,6753,8354,0
12.866815874000167,8706,1840,9218
12.870734255000116,5329,6145,1904
12.874661605000256,2768,11698,0
12.8777390690002,2720,8802,0
12.881474053000147,5201,9202,0
12.88545599300005,14483,5681,8962
12.889588642000035,6033,3872,4353
12.892799276999995,7169,5489,3280
12.896773507000034,7937,4865,3872
12.90062967599988,1776,6641,0
12.903709297000205,7585,848,11762
12.907710796000174,9490,1616,0
12.911656125000263,1024,3248,2752
12.914788310999938,10642,848,0
12.918876755999918,3472,9762,0
12.921928140000091,0,480,0
12.925669146000018,6289,12307,0
12.928849821999847,6641,1008,256
12.93296691200021,5809,6257,2320
12.93693879400007,4481,3872,1296
12.940674759000103,5713,1648,0
12.94380664800019,1504,4417,0
12.947697640000115,720,752,1792
12.950824375000138,9826,9378,0
12.954673202999857,1936,1440,0
12.958650345000024,11810,11938,3152
12.961801286000082,0,736,15363
12.96570523499986,800,5297,6385
12.969524770000135,4097,5681,0
12.972674148999886,2672,1920,1808
12.976588195000204,5217,6161,0
12.979691063000246,12034,4353,0
12.983552985000188,1712,1952,3536
12.987499377999939,8466,13859,2592
12.991480289000265,3440,6353,208
12.994473309000114,11250,6849,0
12.998480479000136,17140,39321,1296
13.002521528000216,3328,4353,0
13.006765401999928,18356,2400,0
13.00974733000021,8113,5041,0
13.013416147000044,272,1072,992
13.017596321999918,2272,2960,1200
13.020622603999982,0,1632,1760
13.024679949000074,1616,2128,0
13.027718096000171,7393,1280,0
13.031688496000243,528,1888,0
13.034694160000072,9042,1024,0
13.03863782999997,4385,864,32
13.041770019000069,1296,14739,0
13.045539276999989,11330,1280,0
13.049739669000246,22869,720,1456
13.052834865000023,5233,2864,0
13.056594858000153,34792,8290,0
13.05968205299996,5681,8562,0
13.063697861000037,34248,13315,0
13.067692019999868,2048,17524,9266
13.071677507000004,26918,7073,1792
13.074719499999901,4129,4577,0
13.078837266999926,11010,23269,6289
13.082661516999906,2752,9746,0
13.086652759000117,7681,10082,4945
13.0896181600001,0,7681,1360
13.093575010000222,5313,19476,0
13.096667203999914,5585,3152,0
13.100683434000075,7201,1568,0
13.103725177999877,9410,496,0
13.107796280000002,2544,2640,0
13.110814775000108,0,1248,0
13.114735924999877,1968,1104,0
13.118635223000183,3152,1120,2768
13.121828867000204,464,3584,256
13.125624466999852,368,96,0
13.128658168000129,5921,976,880
13.13266301900012,256,5089,0
13.135672775999865,9330,15203,0
13.13982366900018,3184,5297,11234
13.14376227699995,9378,0,2656
13.146825269000146,4625,4961,0
13.150754905000213,4689,544,0
13.15381046199991,4177,1024,800
13.15760162200013,736,19284,16
13.16082752300008,2880,480,0
13.16467439400003,0,12467,96
13.16858559100001,0,22421,11442
13.171877610000138,16147,5089,0
13.175657707000028,5137,560,7521
13.17965096900025,1792,128,7377
13.182829783000216,1040,15619,0
13.186811107000267,3088,2752,6993
13.190754590999859,96,3328,8818
13.19381709900017,2896,3536,32
13.197768689999975,3520,816,0
13.20081319100018,624,1568,0
13.20385831600015,5377,0,0
13.207800105999922,1792,1360,0
13.21084124700019,0,512,0
13.21509960100002,0,160,0
13.217571732000124,8978,272,816
13.220636660999844,0,1152,0
13.223667857000237,544,0,0
13.227616511000178,2816,8658,0
13.23066150600016,9682,352,0
13.23460691299988,6145,5793,944
13.238549140000032,656,15587,0
13.24163941200004,1632,0,24181
13.2456071470001,24245,1280,20773
13.24953514300023,1760,12034,0
13.253521592000197,2448,2464,5377
13.256577731000107,8914,9986,9218
13.26055132700003,5841,5089,4016
13.264514638000037,416,7665,0
13.267541195999911,4385,656,0
13.271520274000068,3328,3328,784
13.275484561000212,12899,1648,0
13.278470360000028,4641,1536,6401
13.282486647000042,17172,4449,0
13.286463167999955,7457,14291,464
13.289483134999955,720,2288,432
13.293432757000119,10274,0,0
13.296477880000111,336,6865,0
13.300472702000206,1568,3760,752
13.304460908000237,16099,800,5105
13.30748587700009,23349,1840,0
13.31147461799992,8418,1408,5009
13.315441756999917,18100,11026,0
13.319423038999957,21061,2576,3216
13.323404323999966,20228,16564,10482
13.327390329000082,18836,10242,3376
13.331444432999888,17668,22021,1280
13.33488612300016,11570,1616,0
13.338763911000115,1360,6513,4289
13.34282158699989,11570,704,1792
13.345864147000157,5329,720,688
13.349770051000178,3600,3376,4048
13.353498415000104,0,7169,0
13.35650256000008,272,5345,0
13.360475669000152,13475,6401,0
13.363515997999912,12707,2848,0
13.36773548500014,0,5153,3936
13.370756606000214,0,9858,0
13.374753903000055,18132,11426,0
13.37766610000017,12851,1024,0
13.38169593800012,0,3232,5617
13.385469715,1376,0,19204
13.388657405000231,11266,1072,0
13.392755736000254,0,5377,1088
13.396520749000047,19844,16500,9762
13.400602684000205,31399,1248,4417
13.403808206000122,128,544,2352
13.407751453999936,19636,16083,14995
13.411636332999933,54189,12307,0
13.415654813999936,13363,1024,1456
13.419888746000197,21541,14435,3152
13.423888672999965,28662,3904,2032
13.426844123000137,15267,3088,0
13.430733041000167,12707,4913,0
13.433968268000172,8978,1040,0
13.437904290000006,4465,5441,0
13.441701992000162,11314,704,0
13.444914196999889,5121,5921,0
13.448707027000182,1472,1200,0
13.451915457000268,0,528,0
13.454886347999945,0,256,0
13.458666171000004,0,1760,5729
13.46207385300022,1280,1808,4705
13.465703510999901,12034,16,6097
13.469613997000124,13027,5377,0
13.472707332000027,0,4032,0
13.47674440899982,31079,8946,0
13.47977225700015,7121,14003,880
13.483780529999876,48315,7425,6385
13.487956746000236,4193,19252,13443
13.49198503200023,65535,25462,24181
13.49570560400025,65535,752,6769
13.499856575000194,272,4064,10866
13.503759254000215,22437,15619,10898
13.50782028499998,11762,1632,0
13.51079240099989,1888,1424,0
13.514773376999983,2336,3136,3840
13.517993105000187,11410,6449,0
13.521784992999983,7457,1616,5729
13.525890356000218,17428,304,9666
13.529724477999935,12547,976,6065
13.532796818999941,0,18068,0
13.536965773000247,25766,9570,25350
13.540739767000105,0,3552,3632
13.543748529999903,15347,496,0
13.54772789000026,13043,3984,0
13.550685797999904,0,5105,0
13.554633724000269,20372,11234,0
13.557968222,3888,736,0
13.561664197000027,0,4337,0
13.564741355000024,2832,1264,4161
13.568796563999967,3504,7553,0
13.572550043999854,7265,480,2304
13.575779050000165,19716,14339,0
13.579813874000138,7921,2384,9138
13.583749735999845,11682,1072,12130
13.587742040000194,3216,21013,8145
13.591762161000133,46491,2048,3936
13.595717401000002,25190,6625,2384
13.598900905999926,22645,5793,0
13.602793246000147,15411,5377,688
13.606929917999878,768,1536,2464
13.610907578000024,1792,4353,4048
13.613727824999842,0,7473,0
13.617735210999854,5377,22581,832
13.620775722999952,4657,4561,0
13.624693792000016,16628,0,0
13.627740260999872,0,1168,0
13.63084047800021,1952,5665,0
13.634719954000047,6129,6369,0
13.638584883000021,80,7313,2016
13.641636350000226,3040,1136,0
13.64557183900024,8866,1184,15475
13.649531203000151,1600,12467,2080
13.652515996000147,1936,2048,0
13.656750418000229,0,3344,2304
13.66077535300019,1328,640,5649
13.663811648999854,17188,11458,0
13.667775739000263,8434,8498,624
13.671757245000208,15859,352,6545
13.67549216999987,25606,2512,0
13.678586884000197,8642,11810,1776
13.682735616000173,17028,16131,0
13.686479958999826,4977,2560,0
13.690673617999892,15843,7313,2192
13.69379367800002,14083,8065,5937
13.697716925999885,11474,3808,0
13.700792576999902,0,720,0
13.704681659000016,1056,1616,0
13.707718560000103,4353,2384,0
13.711627743000008,3616,2176,0
13.715628426999956,10786,5601,1584
13.71887376299992,6737,11250,0
13.722946630000024,9490,2352,2192
13.726906181000231,5169,4273,3168
13.730699430000186,3744,20276,352
13.73398220900026,8530,2928,0
13.737758329999906,5329,10530,0
13.741048097000203,4177,8930,0
13.744778773000235,0,21253,2208
13.74881676799987,2304,6481,1600
13.752046701999916,512,1296,0
13.755927416999839,9490,5873,0
13.759855923000032,4497,4129,1200
13.762849541999913,4097,9170,8177
13.766830085000038,27302,5489,0
13.770919184999912,18420,4433,768
13.77401963400007,7921,1280,0
13.777836489000038,12819,9474,0
13.781929764999859,21733,1312,0
13.78568210100002,27542,1008,5553
13.788891189999958,1968,1616,0
13.792803395000192,26934,3520,3424
13.796886446999906,11746,12819,0
13.79999266699997,9442,4129,0
13.803837399000258,29303,7937,1056
13.80781295099996,11314,6145,6945
13.811036308999974,6993,848,0
13.814926406000268,5473,5873,0
13.818719689999853,4497,1024,768
13.82202382000014,3328,800,2112
13.825729633000265,15875,768,0
13.82884547499998,14819,1184,0
13.832817000999967,1488,2480,0
13.83685836299992,15107,3168,0
13.839858853999885,592,5281,0
13.843975510999826,6561,19124,11682
13.847727724999913,3488,5121,0
13.85098317200027,4625,1776,112
13.854925537999861,12451,2864,0
13.858722180999848,7649,4433,928
13.862782008000067,21221,2320,1104
13.865787997000098,3968,5233,0
13.869927829000062,27174,3072,2848
13.873004904000027,1280,2064,0
13.876806814000247,4465,4833,0
13.880801779000194,21397,8274,7569
13.884845409000263,15283,1792,0
13.887938371000018,1280,3664,3344
13.89195754100001,13539,4593,0
13.894855618999827,7009,4449,0
13.89872887599995,4593,6609,0
13.902760533000219,37497,1584,0
13.905931747000068,20036,1616,0
13.909682367000187,11858,6065,0
13.912858356000015,1360,4385,0
13.916723818000264,0,3584,0
13.919807999000113,8450,6689,0
13.922861530999853,8642,0,0
13.926773497999875,1680,1424,80
13.929840181000145,0,720,0
13.933755628000199,1200,2304,0
13.936798200999874,0,4481,0
13.94062973400014,3280,7681,0
13.94361846999982,1184,1280,560
13.947549181999875,0,592,1328
13.950578105000204,0,8514,0
13.953824242999872,0,4625,0
