time,y1,y2,y3
0.00601901299887686,1927,896,423
0.008758893000049284,1927,1072,437
0.011487481999211013,1920,1156,437
0.014215113000318524,1921,1226,461
0.01694574300017848,1923,1289,474
0.019679248998727417,1922,1249,439
0.022412045998862595,1926,1277,464
0.025703552999402746,1927,1265,453
0.02839572499942733,1926,1303,484
0.031090063999727136,1920,1340,502
0.033782943999540294,1918,1349,507
0.036473615999057074,1919,1391,540
0.039163663999715936,1922,1315,470
0.041854835999401985,1925,1326,480
0.044540840999616194,1922,1307,469
0.047227762999682454,1929,1309,479
0.0499142690005101,1924,1361,511
0.05260669099880033,1921,1358,509
0.05529611299971293,1920,1388,535
0.05798615999992762,1920,1349,494
0.060677874000248266,1924,1325,477
0.06336750499940536,1925,1328,482
0.06608434400004626,1927,1293,461
0.06879372399998829,1920,1355,511
0.07149568800014094,1919,1359,511
0.07418919299925619,1920,1371,523
0.07688182399942889,1920,1392,527
0.0795722040002147,1920,1326,468
0.08226029300021764,1920,1329,485
0.08495004900032654,1925,1307,470
0.08763826199901814,1923,1328,495
0.09033006000026944,1913,1361,511
0.0930221899998287,1910,1358,508
0.09571457099991676,1914,1391,535
0.09840149299998302,1918,1341,484
0.10111766499903752,1920,1324,479
0.10381129499910458,1923,1321,477
0.10653430099955585,1923,1282,454
0.10922638999909395,1918,1360,511
0.11191656200026046,1911,1357,510
0.11460585900022124,1913,1373,527
0.11729469800047809,1917,1371,507
0.11998357799893711,1919,1323,476
0.12267754200001946,1921,1329,484
0.12536667299900728,1922,1297,464
0.12805859499894723,1924,1339,502
0.13074718399911944,1918,1362,523
0.13343656399956672,1917,1359,511
0.13612552799895639,1919,1394,540
0.13881549200050358,1920,1329,474
0.1415040809988568,1920,1327,480
0.1441930439996213,1921,1317,477
0.1468830079993495,1920,1296,466
0.14957422199950088,1918,1364,525
0.1522637689995463,1919,1357,505
0.15495594099957088,1918,1379,528
0.15764594699976442,1915,1359,497
0.1603353270002117,1920,1323,475
0.16302537400042638,1920,1328,483
0.16571258799922362,1922,1296,464
0.16841871900032857,1920,1343,500
0.17112326599999506,1916,1360,511
0.1738145210001676,1917,1363,511
0.17650685999979032,1913,1401,544
0.17919749099928595,1917,1323,469
0.18189174600047409,1919,1327,481
0.1845830019992718,1920,1310,469
0.18727663199933886,1922,1310,481
0.18996201299887616,1920,1360,523
0.19264876799934427,1913,1354,510
0.19534077400021488,1917,1386,531
0.19803011200019682,1917,1349,494
0.20071807599924796,1919,1324,477
0.2034071229991241,1919,1326,482
0.20609500399950775,1920,1287,459
0.20878150899989123,1917,1350,511
0.211469722999027,1917,1358,510
0.21417022899913718,1916,1367,511
0.21686169199892902,1917,1392,528
0.2195536559993343,1915,1322,470
0.22224274499967578,1918,1328,482
0.22493179199955193,1920,1305,465
0.22765958899981342,1919,1323,494
0.23034946999905515,1899,1355,511
0.23303989200030628,1903,1349,506
0.23572918900026707,1905,1383,531
0.2384143609997409,1911,1335,485
0.24114853399987624,1918,1319,475
0.24383999699966807,1922,1318,473
0.24655704500037245,1918,1280,453
0.2492478829990432,1849,1339,508
0.2519404309987294,1818,1318,495
0.25463210300040373,1839,1330,505
0.25732452500051295,1864,1333,494
0.26001265500053705,1887,1290,463
0.2627014939989749,1904,1301,475
0.26539437499923224,1914,1280,449
0.2681187139987742,1925,1323,495
0.2708371360004094,1936,1357,511
0.27353418299935583,1926,1360,511
0.2762302720002481,1926,1399,542
0.2789285689996177,1920,1328,476
0.2816279910002777,1919,1327,481
0.28432882999914,1920,1313,477
0.28702662700015935,1920,1296,469
0.2897204660002899,1926,1363,525
0.2924151379993418,1921,1358,506
0.295118101999833,1921,1383,530
0.29781481600002735,1920,1359,496
0.3005150709996087,1917,1322,478
0.3032127850001416,1919,1328,482
0.30590524899889715,1919,1293,458
0.30860279599983187,1911,1343,506
0.3112986349988205,1904,1357,510
0.3139888900004735,1906,1360,511
0.31669377099933627,1908,1395,531
0.3193980679989181,1909,1318,464
0.32209232399873144,1915,1325,483
0.32478878700021596,1915,1303,470
0.32748429300045245,1917,1314,485
0.3301774649989966,1904,1356,511
0.3328703039987886,1903,1349,505
0.3355618929999764,1904,1380,529
0.3382539399990492,1908,1335,487
0.3409465699987777,1911,1317,477
0.3436373669992463,1916,1319,480
0.34633249800026533,1917,1281,455
0.3490282949987886,1913,1353,511
0.3517249670003366,1904,1351,506
0.3544451809993916,1904,1363,511
0.3571865199992317,1907,1375,511
0.35988827599976503,1909,1314,470
0.36258411400012847,1916,1325,485
0.36527620299966657,1916,1295,465
0.36798629199984134,1912,1327,497
0.37068883899883076,1903,1354,511
0.373382469999342,1904,1351,501
0.37607780899998033,1905,1390,534
0.3787766890000057,1907,1328,477
0.3814706949997344,1913,1318,480
0.38416578299984394,1915,1311,478
0.38686224699995364,1917,1283,461
0.3895511279988568,1901,1355,511
0.39224292499966396,1894,1344,503
0.3949381389993505,1901,1365,525
0.3976297280005383,1904,1351,496
0.4003253159989981,1909,1312,467
0.4030203629990865,1913,1319,480
0.4057143689988152,1914,1291,461
0.4084147909998137,1904,1333,496
0.4111163799989299,1891,1349,509
0.4138113440003508,1893,1351,507
0.41651222399923427,1902,1389,535
0.4192116049998731,1904,1314,466
0.4219071099996654,1909,1317,474
0.42460086599930946,1917,1300,468
0.4272952459996304,1917,1298,477
0.43002554399936344,1894,1349,511
0.4327350490002573,1891,1342,505
0.43543147099990165,1897,1371,528
0.43812485200032825,1903,1337,491
0.4408162319996336,1907,1311,471
0.44350815399957355,1910,1314,474
0.44619982599942887,1915,1280,452
0.44889362399953825,1897,1343,511
0.4515871709991188,1889,1344,507
0.4542791349995241,1893,1355,511
0.45697372299946437,1902,1377,511
0.4596658959999331,1905,1310,465
0.46235573400008434,1909,1317,477
0.4650508649992844,1911,1296,464
0.46775611999873945,1913,1317,487
0.47045195899954706,1897,1345,511
0.47318379799980903,1897,1344,501
0.4758822619987768,1901,1379,529
0.4785786840002402,1904,1328,479
0.4812726059990382,1910,1310,475
0.4839739870003541,1911,1308,471
0.48667249199934304,1914,1274,453
0.4893652890004887,1904,1354,511
0.49206062799930805,1895,1349,506
0.4947553419988253,1901,1361,526
0.497445222999886,1904,1358,505
0.5001384779989166,1906,1312,468
0.5028361499989842,1913,1321,479
0.5055296970003837,1906,1290,459
0.5082276199991611,1909,1328,496
0.5109222499995667,1894,1349,507
0.513614213999972,1894,1350,508
0.5163203439988138,1902,1387,539
0.5190160999991349,1904,1318,470
0.5217128549993504,1909,1314,480
0.524408527999185,1913,1303,469
0.5271034079996753,1911,1290,467
0.529796038999848,1899,1354,511
0.532491043999471,1894,1344,506
0.5351842999989458,1899,1369,528
0.5378760129988223,1903,1345,496
0.5405688939990796,1905,1312,474
0.5432608579994849,1909,1315,478
0.5459516549999535,1913,1285,455
0.5486479099999997,1905,1335,500
0.5513449569989461,1899,1347,509
0.5540376709996053,1899,1357,511
0.5567367599996942,1904,1392,537
0.5594355569992331,1905,1312,464
0.5621287710000615,1908,1318,479
0.5648246099990502,1911,1298,465
0.5675190319998364,1908,1306,482
0.5702158709991636,1903,1351,511
0.5729137099988293,1900,1344,500
0.5756102989998908,1901,1377,530
0.5783047209988581,1904,1335,481
0.5810089759997936,1907,1312,471
0.5837097730000096,1909,1313,478
0.5864040289998229,1911,1279,449
0.5891093680002086,1904,1348,508
0.5918055399997684,1900,1348,506
0.5945281290005369,1901,1360,523
0.5972353429988289,1904,1375,511
0.599936014999912,1909,1327,480
0.6026341039996623,1914,1331,495
0.6053297340004065,1918,1302,471
0.608026322999649,1915,1330,507
0.6107202869989123,1905,1360,528
0.6134112919990002,1905,1357,511
0.6161056309993,1907,1391,544
0.6187995119998959,1910,1331,487
0.6214928089993919,1911,1321,486
0.624188730998867,1917,1313,485
0.6268847359988285,1911,1285,469
0.6295752419991913,1904,1357,529
0.6322717469993222,1902,1349,511
0.6349872110004071,1903,1370,528
0.6376815919993533,1909,1359,505
0.6403732639992086,1909,1317,473
0.6430649359990639,1915,1325,487
0.6457582749990252,1914,1293,465
0.6484501969989651,1909,1331,509
0.6511470779987576,1904,1357,522
0.6538406250001572,1904,1359,511
0.6565365469996323,1904,1394,549
0.6592305109988956,1908,1318,480
0.6619223489997239,1916,1323,491
0.6646178549999604,1914,1308,479
0.6673155270000279,1918,1298,484
0.6700078239991853,1906,1357,528
0.672704579999845,1904,1349,511
0.6754060019993631,1904,1377,537
0.678100381999684,1909,1346,497
0.6807948459991167,1911,1317,482
0.68348910199893,1919,1321,492
0.6861796489993139,1918,1281,462
0.6888735289994656,1914,1347,511
0.6915693270002521,1905,1354,511
0.6942601239989017,1906,1361,528
0.6969541710004705,1907,1391,539
0.6996476349995646,1909,1317,481
0.7023424319995684,1917,1325,493
0.7050378120002279,1917,1303,471
0.7077317759994912,1920,1323,496
0.7104322399991361,1911,1359,526
0.7131625789988902,1907,1350,511
0.7158574179993593,1910,1387,543
0.7185536319993844,1913,1341,496
0.7212443449989223,1919,1321,486
0.7239368509999622,1918,1318,483
0.7266311479997967,1920,1281,463
0.7293290699999488,1910,1359,528
0.7320318669990229,1904,1355,511
0.7347247889993014,1904,1370,528
0.7374167529997067,1914,1373,511
0.7401081339994562,1914,1321,481
0.7428006390000519,1917,1328,491
0.7454918530002033,1919,1296,470
0.7481843169989588,1918,1334,507
0.7508801969997876,1913,1360,527
0.7535724529989238,1910,1358,511
0.7562678329995833,1911,1392,546
0.7589624640004331,1916,1330,486
0.761659886000416,1915,1327,491
0.7644734749992494,1918,1314,487
0.7672178140001051,1923,1296,480
0.76991827799975,1909,1359,529
0.7726192829995853,1889,1339,503
0.7753176639998856,1906,1378,537
0.7780103360000794,1909,1357,503
0.7807080499987933,1919,1322,481
0.7834037220000027,1920,1327,489
0.7860955189989909,1921,1293,467
0.7887891909995233,1910,1339,509
0.7914942799998244,1904,1356,511
0.7941917440002726,1904,1360,528
0.7968870000004245,1913,1395,540
0.7995833799996035,1911,1321,480
0.8022757189992262,1920,1328,494
0.8049695159988914,1920,1311,479
0.8076648129990645,1920,1324,497
0.8103557769991312,1911,1360,530
0.8130504490000021,1907,1355,525
0.8157442459996673,1907,1386,545
0.8184365019988036,1915,1339,496
0.8211657989995729,1915,1326,489
0.8238621789987519,1920,1326,492
0.8265585179997288,1920,1286,466
0.8292553989995213,1920,1358,530
0.8319875710003544,1915,1360,524
0.8346977019991755,1913,1375,529
0.8373923740000464,1919,1384,527
0.8400906289989507,1920,1326,483
0.8427817600004346,1919,1330,493
0.8454729320001206,1922,1302,473
0.8481641039998067,1922,1334,508
0.8508545259992388,1914,1360,528
0.8535452399992209,1914,1360,511
0.8562372449996474,1917,1394,545
0.858934750998742,1918,1335,483
0.8616283399987879,1920,1328,491
0.8643232199992781,1927,1319,487
0.86701635099962,1922,1295,472
0.8697108149990527,1918,1363,528
0.8724036530002195,1916,1359,511
0.875101908999568,1917,1381,535
0.8777933309993387,1919,1365,510
0.8804875450005056,1920,1326,485
0.8831808420000016,1921,1330,495
0.885873138999159,1923,1296,469
0.8885679359991627,1922,1344,511
0.8912647340002877,1919,1355,525
0.8939607809988956,1920,1367,528
0.8966549529995973,1920,1405,551
0.8993488750002143,1922,1331,489
0.902041379998991,1927,1335,496
0.9047363440004119,1925,1317,485
0.9074296830003732,1934,1312,486
0.910122646999298,1889,1359,528
0.912817943999471,1883,1345,511
0.9155119909992209,1894,1375,534
0.9182042049997108,1905,1343,496
0.9208968359998835,1910,1316,482
0.9235942989998875,1918,1323,492
0.9262874300002295,1916,1287,464
0.9289819349996833,1904,1344,523
0.931677024000237,1903,1351,511
0.9343853629998193,1904,1360,522
0.9371044099989376,1911,1392,533
0.9398114159994293,1917,1320,477
0.9425418800001353,1920,1327,491
0.9452370939998218,1924,1306,477
0.9479304319993389,1926,1327,501
0.9506220629991731,1939,1367,529
0.953315067999938,1936,1365,528
0.9560080319988629,1936,1404,547
0.9587115379999886,1933,1353,498
0.9614038759991672,1929,1333,492
0.9641000489991711,1930,1328,491
0.9667981370002963,1923,1295,465
0.969489101000363,1924,1366,534
0.9721856899996055,1923,1362,528
0.9748808209988056,1923,1382,537
0.9775733679998666,1921,1379,525
0.9802688319996378,1921,1328,486
0.9829631699994934,1926,1330,496
0.9856583429991588,1926,1302,474
0.9883559310001147,1920,1341,511
0.9910508539996954,1913,1361,528
0.9937426510005025,1911,1359,511
0.9964384479990258,1915,1395,549
0.9991344949994527,1920,1333,489
1.0018808759996318,1925,1329,495
1.0046178809989215,1919,1323,487
1.007316302999243,1923,1299,480
1.010008391998781,1915,1360,529
1.0127041060004558,1919,1357,523
1.015397903000121,1914,1383,538
1.0180921999999555,1922,1359,506
1.0207913310005097,1920,1326,485
1.023486210999181,1923,1328,495
1.0261790080003266,1923,1296,467
1.0288743059991248,1921,1349,511
1.0315683110002283,1914,1360,528
1.034287733000383,1919,1367,528
1.037059197000417,1920,1402,546
1.0398014109996438,1923,1328,483
1.0425404170000547,1925,1330,495
1.0452322139990429,1927,1312,477
1.0479254689998925,1922,1328,500
1.0506178920004459,1898,1346,511
1.0533074800005124,1908,1355,511
1.0560000690002198,1915,1390,543
1.058689116000096,1917,1343,496
1.0613766219994432,1922,1327,483
1.064066835999256,1923,1325,491
1.0667550489997666,1925,1286,464
1.0694422220003617,1909,1356,528
1.0721451850004087,1904,1355,511
1.0748457739991863,1907,1371,531
1.0775386129989784,1914,1377,525
1.0802273689987487,1919,1327,482
1.0829191239990905,1927,1332,495
1.0856083380003838,1916,1293,464
1.0883036769992032,1921,1339,507
1.0909933909988467,1907,1360,526
1.093682478998744,1910,1360,511
1.096371943000122,1911,1392,538
1.0990617819988984,1917,1335,486
1.1017491210004664,1921,1329,493
1.1044384180004272,1929,1320,483
1.1071264229994995,1930,1296,477
1.1098143870003696,1907,1360,531
1.1125033509997593,1904,1355,511
1.11519477299953,1907,1375,531
1.1178844869991735,1914,1360,509
1.1205723259990918,1922,1326,482
1.123261372998968,1925,1329,493
1.1259476699997322,1929,1299,467
1.1286363010003697,1920,1346,511
1.1313258059999498,1908,1360,526
1.1340124369999103,1909,1361,523
1.1367014839997864,1913,1401,550
1.1393885729994508,1921,1328,481
1.1420790779993695,1923,1331,494
1.144765875000303,1925,1318,479
1.1474585060004756,1933,1309,487
1.1501495109987445,1914,1361,531
1.1528394750002917,1905,1357,511
1.1555312299988145,1905,1383,538
1.1582205689992406,1920,1353,505
1.1609092409998993,1922,1328,485
1.1636002889990777,1930,1328,495
1.1662885019995883,1928,1296,467
1.1689817989990843,1923,1350,524
1.171684221999385,1919,1361,526
1.174384560999897,1918,1369,528
1.1770768160004081,1919,1397,544
1.1797706550005387,1922,1328,481
1.1824608690003515,1927,1331,495
1.1851820409992797,1927,1315,477
1.1878721299999597,1930,1326,496
1.1905638429998362,1919,1361,528
1.1932520159989508,1912,1358,511
1.1959418129990809,1919,1392,545
1.1986299849995703,1919,1343,493
1.201316532000419,1923,1328,491
1.2040057880003587,1924,1328,495
1.2066942099991138,1932,1293,464
1.2093831729998783,1923,1361,528
1.2120735959997546,1919,1360,511
1.2147632679989329,1919,1376,531
1.2174497319992952,1922,1383,528
1.2201399869991292,1925,1329,485
1.2228284089997032,1931,1334,496
1.2255174149995582,1925,1310,476
1.228206087000217,1930,1337,505
1.2308947170004103,1920,1367,528
1.233584597999652,1921,1361,524
1.2363176449998718,1920,1400,551
1.2390131510001083,1923,1347,495
1.2417047809994983,1927,1334,493
1.2443963699988672,1931,1327,487
1.2470849999990605,1926,1295,474
1.2497735889992327,1920,1366,531
1.2524625530004414,1915,1360,511
1.2551513079997676,1918,1381,535
1.2578543969993916,1920,1367,511
1.260553402998994,1925,1329,490
1.2632804080003552,1926,1336,496
1.2659939139994094,1931,1305,467
1.268688086000111,1922,1346,511
1.2714016329991864,1917,1362,511
1.2741047219988104,1914,1365,526
1.276799477998793,1919,1405,551
1.2794892330002767,1923,1328,483
1.2821775720003643,1925,1331,496
1.2848686189990985,1927,1318,483
1.287558457999694,1929,1315,491
1.2902451720001409,1918,1363,529
1.2929332189996785,1915,1357,511
1.2956302239999786,1920,1387,541
1.2983178129998123,1922,1357,502
1.301007068999752,1921,1323,480
1.3036957820004318,1929,1333,494
1.3063844959997368,1930,1297,464
1.3090765019987884,1931,1359,527
1.3117684649987496,1923,1365,527
1.3144582209988585,1923,1371,528
1.3171815179994155,1926,1403,540
1.319872314999884,1925,1329,485
1.3225829879993398,1930,1338,496
1.3252936600001703,1929,1318,477
1.3279947489991173,1932,1331,499
1.3306941709997773,1926,1365,528
1.3333925099996122,1920,1361,511
1.3360910979990877,1921,1397,547
1.3387854789998528,1923,1349,496
1.341479275999518,1926,1329,486
1.344171364999056,1927,1328,487
1.3468674949999695,1930,1291,464
1.3495578759993805,1926,1366,529
1.3522540899994056,1925,1362,523
1.3549495529987325,1923,1382,533
1.357647183998779,1926,1382,523
1.3603487729997141,1931,1331,485
1.3630454029989778,1926,1341,497
1.365737492000335,1929,1309,474
1.3684321639993868,1930,1339,511
1.3711256699989463,1922,1364,528
1.3738186749997112,1921,1365,525
1.376512721999461,1919,1403,549
1.379207519999909,1927,1338,489
1.3818984829995316,1927,1333,493
1.3845931969990488,1932,1325,489
1.3872891609989892,1933,1303,481
1.3899834169988026,1922,1367,534
1.3926807139996527,1919,1360,511
1.3953753440000582,1919,1382,533
1.3980700579995755,1921,1361,508
1.4007653970002139,1923,1331,490
1.4034596940000483,1926,1330,490
1.4061519909992057,1930,1301,475
1.4088467879992095,1923,1348,511
1.4115494599991507,1915,1362,527
1.414239257999725,1918,1367,526
1.4169317630003206,1921,1408,554
1.4196247269992455,1926,1331,484
1.4223156070002005,1929,1334,495
1.4250108630003524,1933,1319,478
1.4277034099995944,1934,1322,496
1.4303970820001268,1923,1367,528
1.4331013379996875,1921,1360,511
1.4357955100003892,1923,1392,544
1.4385590570000204,1922,1356,500
1.4412638960002369,1929,1332,483
1.4439646520004317,1931,1332,491
1.4466590319989336,1931,1296,464
1.4493527880003967,1930,1361,527
1.4520456259997445,1920,1364,523
1.4547443819992623,1922,1377,531
1.4574407620002603,1927,1391,531
1.460135850998995,1927,1331,480
1.4628313569992315,1934,1342,496
1.465518486998917,1923,1312,478
1.4682106179989205,1931,1338,503
1.470907998000257,1927,1369,528
1.4736000039993087,1915,1357,510
1.4762933009988046,1927,1402,549
1.4789879729996755,1926,1349,495
1.4816781869994884,1933,1334,491
1.484372025999619,1929,1328,483
1.487068697999348,1936,1296,471
1.4897623699998803,1929,1369,531
1.4924574169999687,1923,1362,527
1.4951536309999938,1925,1383,541
1.4978458860005048,1925,1377,511
1.500536433999514,1925,1334,484
1.5032310639999196,1929,1338,496
1.5059225690001767,1931,1298,467
1.5086165749999054,1931,1351,511
1.5113106219996553,1930,1370,530
1.5140010859995527,1930,1373,526
1.5166945080000005,1933,1410,553
1.5193891799990524,1928,1341,487
1.5220842269991408,1932,1338,495
1.5247817330000544,1936,1327,485
1.5274757799998042,1936,1311,486
1.5301682440003788,1916,1366,535
1.5328641659998539,1907,1359,528
1.5355580880004709,1917,1387,545
1.5382518019996496,1923,1360,507
1.5409563909997814,1925,1330,489
1.5436528959999123,1933,1337,496
1.5463442349991965,1935,1299,469
1.5490368659993692,1893,1343,511
1.5517300800001976,1855,1343,511
1.5544247929992707,1859,1344,511
1.5571471319999546,1883,1376,534
1.559843720999197,1902,1306,475
1.5625600179992034,1915,1318,487
1.5652550239992706,1922,1301,474
1.5679512379992957,1933,1319,497
1.5706478680003784,1936,1361,528
1.5733396239993453,1936,1362,511
1.5760305459989468,1936,1396,547
1.5787677600001189,1931,1356,502
1.581485889999385,1933,1332,494
1.5841858120002144,1934,1331,495
1.5868818179988011,1934,1296,470
1.589573114999439,1947,1373,537
1.592263954000373,1947,1371,527
1.5949551680005243,1946,1392,537
1.5976462559992797,1936,1396,528
1.6003368869987753,1936,1344,491
1.6030258089995186,1933,1347,499
1.6057220229995437,1936,1317,477
1.6084119030001602,1931,1341,499
1.6111070759998256,1929,1376,530
1.6138030809997872,1927,1373,527
1.6164983779999602,1926,1406,551
1.6191883840001537,1925,1345,495
1.6218773469990992,1931,1340,496
1.624565852998785,1934,1328,485
1.627255317000163,1933,1299,478
1.6299452389994258,1923,1370,534
1.632635535999725,1922,1362,524
1.635327457999665,1924,1387,534
1.6380157139992662,1926,1371,511
1.6407075939987408,1927,1334,487
1.6434011000001192,1932,1341,495
1.6460932299996784,1929,1307,473
1.6487839019991952,1925,1346,511
1.6514743659990927,1918,1362,528
1.654164497000238,1919,1370,528
1.6568549599996913,1923,1407,550
1.6595502580003085,1921,1334,485
1.6622377629992116,1929,1335,495
1.6649291020003147,1936,1323,484
1.667619857000318,1933,1315,490
1.670308112999919,1922,1367,529
1.6730136599999241,1920,1360,511
1.675715498999125,1922,1391,542
1.67840879600044,1922,1360,502
1.681130259999918,1925,1331,487
1.6838240990000486,1934,1334,492
1.6865413960003934,1927,1298,465
1.6892341099992336,1925,1357,511
1.691927324000062,1913,1360,511
1.6946184959997481,1920,1369,528
1.6973084599994763,1920,1397,535
1.699997882000389,1927,1329,481
1.7026876370000537,1932,1335,493
1.7053756009991048,1931,1315,471
1.7080769809999765,1930,1330,496
1.7107801949987334,1914,1358,526
1.7134705759999633,1911,1357,511
1.7161621229988668,1920,1392,543
1.7188502119988698,1921,1347,496
1.7215380090001418,1925,1329,489
1.7242254729990236,1931,1328,491
1.7269186029989214,1933,1294,464
1.72960756700013,1914,1361,528
1.7322989889999008,1906,1359,511
1.7349897029998829,1915,1375,528
1.7376787920002243,1920,1383,525
1.7403704219996143,1925,1328,475
1.7430606779998925,1931,1339,495
1.745754517000023,1931,1311,470
1.7484452720000263,1927,1333,504
1.7511354439993738,1911,1364,525
1.7538266579995252,1911,1361,511
1.756515330000184,1908,1399,546
1.759205751999616,1924,1339,487
1.761891715999809,1931,1333,491
1.7645805129996006,1935,1326,485
1.7672691440002382,1936,1297,474
1.7699566909996065,1920,1367,531
1.7726466959993559,1911,1360,511
1.7753541189995303,1915,1383,534
1.7780437910005276,1921,1368,511
1.7807340050003404,1923,1329,487
1.783423884999138,1931,1335,494
1.7861128490003466,1935,1305,471
1.7888010629994824,1931,1349,511
1.7914911930001836,1920,1364,526
1.7941784069989808,1919,1367,525
1.7968697039996187,1920,1407,552
1.799560000999918,1922,1337,485
1.8022480479994556,1933,1338,496
1.8049379709991626,1933,1323,490
1.8076295589999063,1932,1313,492
1.8103191899990634,1918,1366,535
1.8130089869991934,1917,1353,507
1.8156990339994081,1920,1390,543
1.8183863729991572,1920,1361,502
1.8210849200004304,1925,1329,491
1.8237784259999898,1934,1334,492
1.8264925980001863,1934,1298,470
1.8291842279995763,1930,1357,524
1.8318734000004042,1920,1362,525
1.8345633640001324,1921,1375,528
1.8372536610004317,1923,1403,544
1.839944249999462,1930,1329,481
1.8426316309996764,1932,1336,494
1.8453225949997432,1933,1318,481
1.8480120169988368,1932,1328,497
1.8507021049990726,1921,1364,529
1.8533926529999007,1922,1360,511
1.8560812830000941,1921,1393,543
1.8587727889989765,1923,1353,499
1.8614613770005235,1932,1329,491
1.8641521749996173,1931,1330,493
1.8668416799991974,1931,1295,464
1.8695312269992428,1927,1365,532
1.872223190999648,1921,1361,527
1.8749145299989323,1925,1378,531
1.8776026189989352,1916,1379,527
1.8802914159987267,1931,1332,487
1.88298004599892,1933,1339,496
1.8856689269996423,1933,1314,478
1.8883592239999416,1930,1339,502
1.8910481879993313,1925,1370,528
1.893736402000286,1921,1365,525
1.8964252400000987,1923,1399,547
1.8991138709989173,1926,1349,496
1.9018035850003798,1933,1335,495
1.9044943819990294,1932,1328,493
1.9071833870002592,1935,1296,470
1.9098733509999875,1927,1370,530
1.9125643570005195,1925,1363,511
1.9152532369989785,1923,1377,529
1.9179412419998698,1933,1383,523
1.9206307059994288,1929,1335,487
1.9233229199999187,1935,1343,497
1.9260123419990123,1934,1311,474
1.9287018060003902,1933,1349,511
1.9313912279994838,1921,1370,528
1.9340809419991274,1922,1369,527
1.9367727810003998,1926,1409,551
1.9394622449999588,1923,1340,491
1.942149000000427,1928,1337,496
1.9448376309992454,1932,1325,487
1.9475287610002852,1929,1307,484
1.9502126419993147,1927,1370,531
1.9529051890003757,1923,1362,523
1.9555981109988352,1923,1390,542
1.958287699999346,1926,1366,511
1.960977204998926,1925,1333,490
1.9636670439995214,1934,1339,496
1.9663559660002647,1933,1303,468
1.9690481799989357,1929,1353,511
1.971736643999975,1923,1366,526
1.9744263989996398,1920,1373,529
1.9771461130003445,1927,1412,551
1.97983886899965,1927,1331,483
1.9825521239999944,1926,1337,496
1.9852425049994054,1933,1321,481
1.9879341769992607,1936,1325,496
1.99062447399956,1927,1367,528
1.993312729000536,1926,1361,511
1.9960033179995662,1927,1393,543
1.998693364999781,1925,1358,501
2.001381496000249,1930,1334,490
2.0041248349989473,1932,1335,496
2.006841299000371,1931,1298,467
2.009529887000099,1925,1361,528
2.012220601000081,1920,1362,524
2.014908856999682,1920,1376,532
2.0175978209990717,1911,1366,510
2.0202852839993284,1925,1333,487
2.022977122998782,1935,1342,500
2.0256656700003077,1933,1317,478
2.0283540090003953,1934,1342,500
2.0310434729999542,1929,1373,528
2.0337335619988153,1927,1365,525
2.03642148399922,1924,1399,548
2.0391109889988,1925,1351,496
2.041826411999864,1932,1335,491
2.044541916999151,1933,1328,489
2.047263338999983,1933,1296,469
2.049960012000156,1927,1367,536
2.0538435189992015,1924,1363,527
2.0565597749991866,1924,1387,535
2.0592624059991067,1926,1355,502
2.061950118999448,1933,1339,496
2.064640624999811,1931,1330,490
2.0673317549990315,1936,1301,475
2.0700208019989077,1931,1372,534
2.072711349999736,1929,1363,525
2.0754035629997816,1929,1389,535
2.078092652000123,1927,1376,511
2.080782408000232,1930,1337,494
2.083470997000404,1931,1341,497
2.086157419000301,1933,1310,476
2.088845049000156,1928,1351,511
2.091536220999842,1927,1371,528
2.0942250179996336,1926,1371,528
2.09691544099951,1927,1409,553
2.0996044459989207,1927,1338,491
2.1022923679993255,1931,1338,496
2.104982249000386,1932,1324,485
2.107672628999353,1934,1312,485
2.1103609679994406,1930,1370,528
2.1130515149998246,1931,1363,525
2.1157398960003775,1927,1392,544
2.118427026000063,1927,1362,507
2.121199989998786,1926,1335,489
2.1238934960001643,1929,1338,496
2.1265860839994275,1936,1301,471
2.1292755069989653,1935,1360,526
2.1319645539988414,1930,1370,528
2.1346539339992887,1929,1377,529
2.137341440000455,1930,1409,544
2.140031236998766,1929,1338,485
2.1427210759993613,1935,1342,496
2.145410955999978,1931,1321,482
2.148098587000277,1933,1330,499
2.1507881750003435,1927,1367,528
2.1534723059994576,1925,1362,511
2.1561637699996936,1925,1395,540
2.158856399999422,1929,1355,497
2.1615456139988964,1930,1335,489
2.1642375359988364,1936,1334,491
2.166928291999284,1936,1297,464
2.1696177140001964,1904,1359,528
2.1723066359991208,1885,1350,511
2.1749951829988277,1899,1364,527
2.1776846470002056,1911,1380,527
2.1803749859991512,1920,1326,474
2.1830638659994293,1923,1329,495
2.1857532470003207,1922,1305,474
2.188442335000218,1920,1328,498
2.1911327580000943,1921,1360,525
2.193821595999907,1918,1360,511
2.19651180999972,1918,1393,544
2.1991999820002093,1922,1343,493
2.201887571000043,1930,1329,491
2.2045762019988615,1935,1327,489
2.2072645819989702,1934,1292,469
2.2099524209988886,1955,1375,535
2.2126408009989973,1959,1378,528
2.215331723999043,1950,1397,540
2.2180198120004206,1939,1393,525
2.220710109999345,1936,1345,488
2.2233984069989674,1931,1347,497
2.226084619998801,1935,1317,480
2.228773917999206,1934,1355,511
2.2314645900005416,1931,1370,528
2.2341532619993814,1930,1373,529
2.2368446010004845,1931,1408,553
2.239534315000128,1925,1343,495
2.242260069999247,1934,1339,496
2.244953200999589,1932,1327,489
2.2476436639990425,1936,1309,483
2.250336711998898,1921,1370,531
2.25302663399998,1921,1361,525
2.255718430998968,1921,1388,537
2.2584115199988446,1926,1365,511
2.2611256500003947,1929,1331,488
2.263817613998981,1928,1338,494
2.2665318279996427,1931,1299,467
2.269222749999244,1927,1351,511
2.271913131000474,1918,1362,526
2.2746040940000967,1919,1369,528
2.2772913499993592,1922,1407,547
2.2799801050005044,1923,1331,487
2.2826706519990694,1929,1337,495
2.285360075000426,1934,1321,476
2.2880497469996044,1934,1326,495
2.2907385859998612,1925,1367,531
2.2934289240001817,1920,1359,511
2.2961192629991274,1919,1393,543
2.2988093940002727,1923,1356,498
2.3014977740003815,1925,1330,489
2.3041890709992003,1931,1334,493
2.306878159999542,1935,1296,465
2.3095652489992062,1923,1360,528
2.3122573789987655,1919,1360,526
2.314947217999361,1920,1373,530
2.3176357239990466,1925,1392,534
2.320325853999748,1925,1329,483
2.3230159009999625,1935,1338,497
2.3257029479991616,1930,1309,475
2.3284002039999905,1931,1337,503
2.3310898340005224,1915,1366,528
2.333777382000335,1915,1360,511
2.3364660539991746,1920,1392,546
2.3391551839995373,1920,1347,496
2.3418433560000267,1926,1331,494
2.3445320289993106,1931,1328,494
2.34722203399906,1933,1292,467
2.3499131230000785,1922,1363,531
2.352606669999659,1913,1359,523
2.3553014249991975,1920,1377,533
2.3579933479995816,1922,1379,524
2.360682435999479,1923,1330,486
2.3633741089997784,1931,1339,495
2.3660634890002257,1933,1310,476
2.368753452999954,1925,1342,511
2.371442166999259,1910,1360,528
2.3741305469993677,1907,1360,525
2.3768224689993076,1914,1397,549
2.3795095160003257,1913,1334,489
2.3822006049995252,1926,1330,493
2.384892819000015,1931,1325,490
2.387582616000145,1934,1302,481
2.390269788000296,1913,1362,531
2.392958918999284,1906,1358,511
2.395648423998864,1909,1381,537
2.3983366379998188,1920,1363,511
2.4010257689988066,1925,1328,486
2.403715148999254,1931,1337,496
2.4064030709996587,1934,1302,471
2.40909670200017,1926,1348,511
2.4117882489990734,1920,1365,525
2.4145045459990797,1920,1367,525
2.417196509999485,1923,1410,554
2.419885973999044,1923,1331,487
2.422575603999576,1934,1334,497
2.4252644009993674,1935,1323,486
2.4279547819987783,1933,1312,482
2.430645578999247,1926,1366,528
2.433333834998848,1920,1362,524
2.4360218399997393,1926,1392,542
2.4387102620003134,1927,1360,503
2.4413979339988146,1933,1333,490
2.4441186059993925,1935,1338,494
2.446811820000221,1933,1303,469
2.449502825998934,1924,1360,528
2.4521899560004385,1920,1363,523
2.454879336999511,1920,1375,528
2.4575644260003173,1921,1402,537
2.460253097999157,1925,1331,482
2.4629447699990124,1931,1339,494
2.465633775000242,1935,1317,480
2.468323363998934,1934,1330,503
2.471013286000016,1923,1367,529
2.473701582999638,1921,1363,511
2.4763900469988585,1925,1395,543
2.479079593998904,1927,1355,496
2.4817714749988227,1930,1335,493
2.484465730000011,1934,1329,494
2.487155527998766,1936,1296,465
2.489842074999615,1927,1370,533
2.4925299970000196,1921,1363,526
2.495218293999642,1927,1381,534
2.497905465999793,1927,1390,528
2.500594347000515,1918,1327,475
2.503283059999376,1934,1340,497
2.505971190999844,1933,1313,479
2.508661904999826,1933,1345,511
2.5113527849989623,1931,1372,528
2.5140418319988385,1930,1372,528
2.5167325040001742,1933,1407,550
2.5194221349993313,1931,1345,495
2.5221107239995035,1934,1339,496
2.524799853999866,1933,1329,490
2.5274881099994673,1931,1299,471
2.5301757819997874,1925,1361,525
2.532865495999431,1925,1363,525
2.5355533759993705,1921,1386,538
2.5382416729989927,1926,1375,511
2.540931804000138,1931,1334,489
2.543622183999105,1935,1343,496
2.5463110229993617,1935,1309,471
2.5490006119998725,1935,1351,511
2.55168895099996,1929,1371,528
2.554379789999075,1925,1373,527
2.5570684619997337,1930,1409,554
2.5597590090001177,1931,1341,487
2.5624505979994865,1929,1338,496
2.5651618110005074,1934,1328,482
2.5678513170005317,1936,1314,486
2.570564405999903,1925,1369,531
2.5732553279995045,1925,1360,522
2.575945917000354,1926,1392,543
2.578635714000484,1925,1361,510
2.5813233030003175,1929,1331,487
2.5840118500000244,1933,1335,494
2.5866992299997946,1932,1299,465
2.5893876110003475,1935,1357,524
2.5920749079996313,1925,1365,525
2.5947633300002053,1925,1375,527
2.5974495020000177,1926,1407,543
2.60014742400017,1924,1333,485
2.6028371379998134,1931,1341,496
2.6055277269988437,1931,1319,483
2.6082191490004334,1936,1328,499
2.610907655000119,1931,1367,530
2.6135957019996567,1913,1351,505
2.616284165998877,1927,1397,545
2.6189711289989646,1925,1356,498
2.6216580099990097,1926,1334,496
2.624347389999457,1931,1331,494
2.6270371039991005,1933,1298,471
2.629731359998914,1928,1365,531
2.6324218649988325,1931,1359,511
2.635110829000041,1929,1386,535
2.6378003350000654,1931,1397,535
2.6404903399998148,1931,1338,489
2.6431797619989084,1934,1344,496
2.645894725999824,1932,1319,481
2.6485886899990874,1933,1339,494
2.651278278999598,1923,1369,528
2.653967783999178,1925,1367,511
2.6566575809993083,1923,1403,549
2.6593471279993537,1928,1349,496
2.6620358010004566,1930,1338,494
2.664724598000248,1934,1329,490
2.6674148949987284,1935,1299,467
2.670104192000508,1921,1365,531
2.672794238998904,1918,1360,523
2.675483703000282,1918,1379,531
2.678172416999587,1923,1376,511
2.6808625889989344,1927,1333,485
2.683554178000122,1934,1341,496
2.6862409749992366,1934,1309,474
2.688930354999684,1935,1347,511
2.691620110999793,1925,1369,527
2.6943070750003244,1922,1370,528
2.6970023720004974,1926,1407,549
2.6996934189992317,1931,1341,489
2.7023836739990656,1933,1339,496
2.707035683999493,1933,1328,490
2.709730647999095,1934,1344,525
2.7124236119998386,1930,1348,511
2.7151147839995247,1927,1369,528
2.717802622999443,1929,1392,528
2.720493044998875,1927,1328,483
2.723182966999957,1932,1337,495
2.7258690139988175,1933,1312,479
2.72855843599973,1930,1335,511
2.731247149999035,1934,1369,531
2.733936779999567,1934,1362,511
2.736628536000353,1931,1403,545
2.7393176659988967,1927,1354,494
2.7420064639991324,1931,1339,496
2.7446979269989242,1934,1330,491
2.7473868500001117,1936,1296,465
2.7500784799995017,1936,1373,529
2.7527656099991873,1933,1370,525
2.7554546579995076,1933,1389,536
2.7581375379995734,1933,1388,527
2.760829085000296,1934,1338,487
2.7635202990004473,1929,1344,501
2.766204387999096,1936,1312,479
2.768895392999184,1936,1348,511
2.7715861910000967,1930,1373,528
2.7742745710002055,1931,1371,526
2.776964450999003,1929,1409,555
2.779655164998985,1931,1344,491
2.782342795999284,1930,1342,496
2.785031801000514,1934,1328,491
2.7877216819997557,1935,1309,481
2.7904098119997798,1934,1373,533
2.7931310679996386,1931,1366,524
2.795822406998923,1927,1392,538
2.7985424119997333,1923,1366,511
2.801233500998933,1930,1337,490
2.803924380999888,1936,1340,496
2.806615511999553,1937,1308,471
2.8093032260003383,1907,1349,511
2.811993731000257,1883,1355,527
2.8146860699998797,1889,1359,523
2.8173735749987827,1907,1397,549
2.820063205999759,1917,1323,481
2.822751835999952,1922,1328,495
2.8254403840001032,1927,1311,479
2.828129388999514,1922,1314,490
2.8308212279989675,1914,1360,528
2.8335108999999647,1905,1354,511
2.836201613999947,1919,1387,538
2.8388911609999923,1921,1351,496
2.8415790409999317,1926,1328,489
2.8442682969998714,1932,1333,490
2.8469940109989693,1933,1299,465
2.8496841409996705,1951,1366,527
2.8523699380002654,1962,1377,526
2.8550583609994646,1954,1392,534
2.8577421989994036,1941,1414,541
2.8604324129992165,1936,1343,491
2.86312241899941,1936,1348,497
2.865810965999117,1936,1325,480
2.8685022209992894,1931,1342,502
2.8711912269991444,1936,1375,530
2.8738788569989993,1932,1369,525
2.8765677789997426,1934,1402,549
2.879258867998942,1927,1357,499
2.8819476649987337,1934,1339,496
2.8846372129992233,1935,1333,495
2.887325425999734,1934,1295,466
2.8900137239998003,1934,1369,534
2.8927053539991903,1927,1367,511
2.8953960679991724,1923,1385,533
2.8980858649993024,1929,1389,527
2.9007772040004056,1927,1334,485
2.9034666679999646,1933,1342,496
2.9061544649994175,1931,1313,477
2.908844178999061,1931,1344,510
2.911533641999995,1920,1367,527
2.914224022999406,1922,1367,511
2.916912111999409,1925,1403,547
2.9195979090000037,1925,1342,491
2.9222847889996046,1925,1335,493
2.9249730449992057,1933,1328,489
2.9276621749995684,1935,1301,477
2.930349930999,1931,1369,527
2.9330386860001454,1923,1362,511
2.9357456500001717,1922,1388,533
2.93844573899878,1929,1368,510
2.9411692439989565,1933,1335,486
2.943860625000525,1930,1342,495
2.9465507969998725,1933,1308,468
2.9492387190002773,1927,1348,509
2.9519293079993076,1918,1364,526
2.9546176889998605,1920,1369,528
2.9573080689988274,1926,1407,555
2.9599984910000785,1929,1333,486
2.9626874969999335,1933,1339,496
2.965377709999302,1931,1325,482
2.968066841000109,1932,1315,491
2.970754470999964,1917,1363,528
2.9734428100000514,1910,1354,511
2.976140982000288,1917,1387,541
2.9788292800003546,1922,1356,500
2.9815162849990884,1925,1328,489
2.984204456999578,1931,1329,493
2.986894128998756,1936,1299,468
2.9895821760001127,1922,1357,527
2.992273056999693,1908,1359,526
2.9949619790004363,1913,1367,528
2.997648651000418,1920,1396,540
3.0003373229992576,1925,1329,482
3.003025161999176,1932,1338,495
3.0057615429996076,1934,1319,481
3.008480922999297,1935,1331,497
3.011172679000083,1915,1361,528
3.0138608509987534,1911,1358,511
3.016550439999264,1917,1392,544
3.019242319998739,1923,1348,496
3.021930741999313,1925,1330,495
3.024622040000395,1934,1328,490
3.027311877998727,1936,1293,464
3.0299990919993434,1921,1362,528
3.0326890140004252,1917,1360,511
3.035377394999159,1917,1375,529
3.038065024999014,1920,1385,528
3.0407554889989115,1923,1329,485
3.0434459110001626,1933,1335,496
3.046134666999933,1931,1311,475
3.0488532969993685,1927,1340,507
3.0515456779994565,1915,1365,528
3.054282807999698,1919,1363,511
3.0570315639997716,1923,1402,547
3.0597256109995215,1925,1335,487
3.062409824999122,1930,1334,495
3.0651407049990667,1935,1328,487
3.067832627999451,1934,1306,481
3.0705457579988433,1920,1365,532
3.073235763999037,1921,1360,511
3.0759258519992727,1923,1387,539
3.0786180659997626,1922,1363,511
3.0813067799990677,1931,1332,490
3.083997243998965,1930,1339,496
3.086689624000428,1933,1303,470
3.089380796000114,1932,1350,511
3.092072884999652,1923,1365,526
3.094762931999867,1923,1373,525
3.097451937999722,1927,1408,551
3.100142651999704,1928,1333,486
3.1028333239992207,1930,1339,496
3.105521620998843,1933,1323,485
3.1082110019997344,1934,1321,496
3.1108999240004778,1930,1367,528
3.113588345999233,1914,1353,505
3.1162783929994475,1925,1393,545
3.118970397999874,1927,1360,502
3.121661111999856,1927,1333,494
3.1243499929987593,1934,1337,489
3.1270393319991854,1932,1298,469
3.1297279199989134,1933,1362,529
3.132416258999001,1925,1363,526
3.1351053479993425,1926,1379,530
3.1377930199996626,1928,1402,535
3.1404810669992003,1927,1333,485
3.1431701559995417,1930,1343,496
3.145858411999143,1934,1318,481
3.14854749999904,1935,1338,505
3.1512395059999108,1931,1367,532
3.1539293860005273,1926,1365,523
3.156618642000467,1929,1398,546
3.15930614699937,1925,1350,499
3.161994861000494,1929,1334,493
3.1646822419988894,1932,1333,493
3.1673696220004786,1931,1295,464
3.17005841900027,1934,1367,532
3.1727480909994483,1930,1365,524
3.1754385139993246,1927,1381,534
3.1781287689991586,1930,1391,528
3.1808193159995426,1931,1339,487
3.183512696999969,1929,1343,496
3.186200619000374,1933,1314,476
3.1888900409994676,1936,1345,510
3.19157862999964,1937,1374,530
3.194268010000087,1937,1374,525
3.1969575570001325,1936,1409,549
3.1996497709988034,1927,1347,490
3.2023387770004774,1931,1343,496
3.205028615999254,1936,1333,494
3.2077179129992146,1935,1301,480
3.2104058759996406,1933,1375,535
3.213131923999754,1933,1366,528
3.21582605399999,1931,1391,539
3.2185423099999753,1921,1372,511
3.2212323989988363,1931,1336,488
3.2239243209987762,1934,1342,496
3.2266153679993295,1936,1307,475
3.2293045819988038,1933,1352,511
3.231995669999378,1932,1371,528
3.234685592999085,1931,1374,528
3.2373750980004843,1930,1411,551
3.240064228999472,1930,1338,487
3.2427557760001946,1927,1341,497
3.2454460310000286,1933,1323,486
3.2483105789997353,1931,1302,478
3.251020042998789,1926,1360,525
3.253716297998835,1922,1355,506
3.25640692900015,1923,1388,531
3.2590950169997086,1921,1346,489
3.261781481000071,1926,1328,481
3.264473236999038,1927,1328,481
3.267173116999402,1930,1293,454
3.2698931639988587,1936,1359,511
3.272627502999967,1932,1361,511
3.275325425000119,1927,1377,526
3.2780123479988106,1927,1392,526
3.280704185999639,1925,1330,478
3.283393649999198,1926,1339,491
3.2860798639994755,1927,1312,467
3.2887667029990553,1929,1334,496
3.2914575830000103,1926,1365,511
3.2941435470002034,1927,1361,511
3.296832844000164,1923,1397,538
3.2995218910000403,1921,1347,489
3.302208813998732,1926,1331,483
3.304896318999454,1929,1327,480
3.3075844909999432,1926,1291,460
3.310269497000263,1922,1363,511
3.312958084999991,1920,1360,507
3.3156486739990214,1919,1379,528
3.3183385960001033,1920,1375,506
3.321027559999493,1921,1328,475
3.3237171069995384,1923,1335,487
3.326404195999203,1926,1303,466
3.3290939099988464,1932,1344,505
3.33178604099885,1923,1362,511
3.334501420999004,1921,1362,511
3.3371921769994515,1921,1402,541
3.3398802649990103,1922,1334,479
3.3425683959994785,1922,1330,491
3.3452569429991854,1925,1322,477
3.3479456570003094,1925,1301,473
3.3506351619998895,1923,1363,511
3.353323208999427,1921,1358,507
3.356014672999663,1920,1383,528
3.35870380400047,1919,1360,499
3.361389933999817,1921,1328,479
3.3641001060004783,1923,1334,485
3.3667874869988736,1925,1297,462
3.3694750760005263,1924,1344,506
3.372162956000466,1922,1360,511
3.3748535869999614,1920,1365,511
3.3775420499987376,1919,1406,543
3.380234013999143,1918,1328,477
3.3829249359987443,1921,1331,485
3.38561294200008,1923,1315,473
3.388303697000083,1923,1314,483
3.3909918689987535,1927,1362,511
3.3936793749999197,1925,1360,510
3.396369046999098,1921,1389,532
3.399060093999651,1918,1353,493
3.401746932999231,1920,1328,478
3.4044351049997204,1921,1328,483
3.407123901999512,1922,1293,462
3.4098134500000015,1933,1360,523
3.4125027469999623,1923,1363,511
3.4151913349996903,1925,1373,524
3.4178789659999893,1923,1397,529
3.4205689709997387,1920,1328,476
3.423258310000165,1921,1333,490
3.425945523998962,1920,1311,473
3.4286341549995996,1923,1328,496
3.431323077000343,1927,1361,524
3.434009373999288,1925,1360,511
3.4366996709995874,1923,1392,537
3.439387550999527,1919,1349,489
3.442077056999551,1919,1328,479
3.444768061999639,1921,1327,478
3.4474556099994516,1920,1283,457
3.4501871150005172,1931,1360,526
3.452879037000457,1929,1360,510
3.455580251000356,1925,1378,523
3.458273381998879,1920,1381,511
3.4609643450003205,1918,1330,478
3.4636521840002388,1920,1337,489
3.4663425229991844,1921,1305,463
3.469031778999124,1921,1337,497
3.4717206169989367,1918,1360,511
3.4744091640004626,1918,1360,509
3.4771348369995394,1920,1394,538
3.4798260089992255,1918,1334,478
3.482541097999274,1918,1331,483
3.48523256199951,1924,1322,475
3.4879236919987306,1925,1296,469
3.4906160729988187,1873,1346,511
3.493304244999308,1864,1333,499
3.495992666999882,1872,1355,511
3.4986822139999276,1882,1340,491
3.5013697189988306,1897,1303,471
3.5040597669994895,1904,1313,481
3.5067506049999793,1911,1282,454
3.5094402359991363,1929,1331,498
3.512130699999034,1942,1360,507
3.514818204999756,1936,1369,509
3.5175059190005413,1929,1408,539
3.520196715999191,1919,1328,474
3.5228859300004842,1920,1334,487
3.525572934999218,1920,1314,473
3.5282617329994537,1920,1307,482
3.5309501550000277,1939,1367,527
3.5336362849993748,1938,1363,507
3.536323373999039,1935,1393,535
3.5390148789992963,1925,1360,496
3.541704301998834,1920,1331,483
3.5443930990004446,1920,1332,487
3.5470813129995804,1920,1295,460
3.5497689849999006,1917,1350,511
3.552457615000094,1917,1358,510
3.5551468710000336,1916,1367,511
3.5578336260005017,1913,1392,528
3.5605212150003354,1913,1326,470
3.5632182199988165,1917,1328,487
3.5659056839995174,1919,1306,471
3.568594315000155,1919,1322,495
3.5712817789990368,1916,1359,511
3.5739825759992527,1915,1351,509
3.5766814979997434,1917,1399,547
3.579373212000064,1917,1355,500
3.5820622589999402,1917,1331,495
3.584752763999859,1921,1328,494
3.587441477999164,1920,1289,464
3.590129858999717,1922,1360,531
3.592820156000016,1921,1360,511
3.5955087860002095,1915,1376,533
3.5981976669991127,1917,1381,531
3.600886422000258,1919,1328,485
3.6035778030000074,1919,1333,496
3.606267099999968,1919,1307,474
3.6089553969995904,1921,1333,499
3.6116444439994666,1910,1360,523
3.6143326580004214,1910,1357,511
3.617021162999663,1911,1392,542
3.6197103769991372,1911,1338,489
3.6223990910002613,1920,1329,491
3.6250904720000108,1922,1325,489
3.627781393999612,1919,1294,471
3.6304958990003797,1910,1359,530
3.6331883629991353,1906,1355,511
3.635879326999202,1907,1373,528
3.638568373999078,1909,1361,508
3.6412553379996098,1919,1327,489
3.6439447600005224,1920,1331,496
3.6466346819997852,1920,1298,469
3.6493206880004436,1916,1343,509
3.6520409019994986,1907,1359,524
3.6547309899997344,1907,1358,511
3.65741920399887,1913,1393,546
3.660108918000333,1916,1328,483
3.6627967980002722,1920,1328,495
3.6654853870004445,1920,1314,481
3.6681750179996016,1924,1304,482
3.6708620230001543,1904,1359,528
3.673549319999438,1904,1351,511
3.6762381169992295,1908,1376,537
3.678927331000523,1911,1354,503
3.6816141700001026,1915,1327,486
3.6843022590001056,1919,1328,494
3.6869897229989874,1922,1295,467
3.689677311998821,1914,1346,511
3.6923650669996277,1908,1357,511
3.6950535719988693,1904,1362,528
3.6977433699994435,1914,1397,542
3.7004331669995736,1918,1324,481
3.7031212969995977,1920,1331,495
3.7058090939990507,1921,1313,479
3.708516016999056,1915,1319,495
3.7112130639998213,1911,1360,526
3.713904318999994,1906,1351,511
3.716593199998897,1915,1382,537
3.7192812889989,1913,1345,496
3.7219680859998334,1918,1328,485
3.7246566329995403,1922,1328,493
3.7273447219995433,1923,1291,462
3.7300338099994406,1912,1358,528
3.7327245239994227,1910,1358,511
3.7354123209988757,1907,1361,528
3.7380989939993015,1915,1386,531
3.740787331998945,1916,1327,481
3.7434744210004283,1917,1331,493
3.746161384999141,1925,1308,478
3.748851473999821,1925,1330,498
3.7515378539992525,1909,1359,523
3.754225568000038,1911,1358,511
3.7569204489991535,1909,1391,544
3.7596091619998333,1916,1342,496
3.7622956260001956,1921,1329,492
3.7649827980003465,1925,1325,491
3.767674761998933,1926,1287,467
3.7703638509992743,1920,1360,526
3.773051606000081,1911,1358,511
3.7757411539987515,1911,1374,530
3.7784275760004675,1920,1371,511
3.781154914999206,1921,1328,487
3.7838472530002036,1922,1335,496
3.786560300999554,1926,1303,469
3.7892480560003605,1923,1339,511
3.791937603000406,1914,1360,527
3.7946384419992683,1910,1360,526
3.797325613999419,1916,1398,551
3.8000164109998877,1916,1333,487
3.8027056669998274,1922,1331,491
3.8053921310001897,1925,1322,484
3.80808030299886,1929,1300,479
3.810770849999244,1919,1364,530
3.813458938999247,1914,1355,522
3.8161463609994826,1919,1382,537
3.818834990999676,1920,1360,511
3.8215211639999325,1920,1328,489
3.82420891899892,1922,1331,495
3.826899424999283,1924,1299,471
3.8295878049993917,1914,1335,507
3.8322766439996485,1917,1360,528
3.834965107998869,1917,1364,528
3.8376526550000563,1918,1407,554
3.8403397019992553,1921,1328,481
3.8430275409991737,1926,1335,497
3.845713587999853,1926,1318,484
3.848402551999243,1926,1315,491
3.851089014999161,1919,1361,528
3.8538077709999925,1918,1357,511
3.85649823499989,1918,1390,542
3.85919198999909,1918,1354,500
3.861883661998945,1921,1328,487
3.8645707100004074,1924,1328,490
3.8672571320003044,1929,1296,468
3.869942761999482,1919,1357,527
3.87262926800031,1918,1360,511
3.875315731998853,1920,1373,526
3.8780027789998712,1919,1394,534
3.8806920339993667,1920,1328,481
3.8833825809997506,1925,1335,494
3.886070877999373,1925,1313,475
3.8887584669992066,1929,1328,497
3.8914488480004366,1921,1360,527
3.894136602999424,1916,1360,511
3.896825275000083,1922,1394,541
3.8995135730001493,1918,1345,496
3.902200078000533,1925,1328,490
3.9048882499992033,1924,1328,491
3.90757679699891,1923,1289,464
3.9102646359988285,1925,1362,528
3.912953142000333,1926,1360,511
3.91564110499894,1925,1379,531
3.918327068999133,1921,1387,525
3.9210164500000246,1921,1331,485
3.92464095700052,1926,1340,495
3.92734300399934,1927,1312,478
3.930030051000358,1920,1350,525
3.9327210989995365,1920,1355,511
3.935410228999899,1918,1362,524
3.9380977759992675,1919,1389,529
3.940785614999186,1922,1327,481
3.9434732039990195,1927,1333,491
3.94615958400027,1931,1310,475
3.948847339999702,1931,1328,497
3.951534804000403,1920,1360,528
3.9542236010001943,1920,1360,511
3.9569132729993726,1920,1393,545
3.9596032369991008,1921,1346,496
3.962291658999675,1926,1330,493
3.964980831000503,1927,1328,488
3.9676677949992154,1927,1291,464
3.970355550000022,1930,1365,527
3.9730416809998133,1922,1360,511
3.975728686000366,1921,1380,530
3.9784158999991632,1922,1376,523
3.9811456560000806,1926,1333,485
3.9838383280002745,1927,1339,496
3.986552958000175,1927,1310,476
3.989243963998888,1930,1343,506
3.9919335529993987,1925,1366,528
3.994623225000396,1922,1366,524
3.9973097299989604,1926,1404,551
3.9999998610001057,1919,1341,489
4.002688949000003,1925,1336,492
4.005375954999181,1930,1328,487
4.00811566899938,1931,1300,478
4.010830965999048,1920,1366,529
4.013520554999559,1915,1357,511
4.016210309999224,1919,1385,538
4.018901356999777,1921,1360,509
4.021590320999167,1923,1328,492
4.0242787019997195,1930,1333,496
4.026966248999088,1927,1306,470
4.029653796000275,1930,1346,511
4.032342759999665,1925,1367,522
4.035032223999224,1920,1367,528
4.037728978999439,1922,1407,554
4.0404223179994005,1921,1329,486
4.043114822999996,1925,1337,496
4.045802286998878,1931,1319,482
4.048489583999981,1925,1319,494
4.051175548000174,1927,1364,528
4.053902178999124,1925,1360,523
4.056594517998747,1921,1392,544
4.059284605998982,1922,1354,501
4.0619941120003205,1926,1331,492
4.064713617999587,1925,1333,496
4.06740733100014,1928,1296,467
4.070095086999572,1934,1361,529
4.072782592000294,1925,1362,524
4.075470763998965,1920,1374,528
4.07815664500049,1925,1394,535
4.080846441998801,1924,1331,479
4.0835405309990165,1925,1338,496
4.0862306199996965,1929,1313,479
4.088918583998748,1933,1333,499
4.091607796999597,1921,1366,527
4.0942957190000016,1919,1361,511
4.096983600000385,1921,1397,545
4.099671730000409,1923,1350,501
4.102358318999904,1925,1333,491
4.105046950000542,1927,1328,491
4.107735497000249,1927,1293,464
4.110423377000188,1929,1363,529
4.113154716000281,1926,1361,523
4.115850304999185,1927,1382,535
4.118562685998768,1923,1381,511
4.121251774000484,1926,1330,490
4.12394240499998,1933,1339,499
4.126630951999687,1927,1307,474
4.129317582999647,1929,1344,510
4.132006963000094,1917,1362,525
4.134695302000182,1916,1361,511
4.137380390999169,1922,1399,547
4.14007102100004,1922,1338,489
4.142761359998985,1931,1335,496
4.145450365000215,1934,1327,490
4.1481403289999434,1936,1307,482
4.1508265849988675,1872,1351,527
4.153512839999166,1853,1335,505
4.1561989709989575,1871,1355,528
4.158885933999045,1884,1339,499
4.161572523000359,1904,1308,479
4.164260319999812,1915,1319,489
4.166947743000492,1920,1291,464
4.169646039999861,1936,1343,510
4.172332461999758,1942,1363,511
4.175018175999867,1937,1371,523
4.177705722999235,1934,1414,554
4.180396769999788,1930,1339,483
4.1830871919992205,1933,1341,498
4.185773155999414,1929,1325,483
4.188460620000114,1935,1319,495
4.191147916999398,1948,1374,534
4.193833380999422,1946,1372,511
4.196521260999361,1939,1403,544
4.199210933000359,1934,1367,509
4.201897396998902,1931,1337,490
4.204585777999455,1935,1343,496
4.207272866000494,1931,1303,469
4.209960496998974,1926,1360,526
4.212649585999316,1920,1363,511
4.215336215998832,1920,1375,511
4.218024304998835,1923,1406,541
4.22071626899924,1925,1332,484
4.223404357999243,1929,1335,496
4.226091029999225,1931,1319,479
4.228779035000116,1931,1328,497
4.231468873998892,1919,1361,528
4.2341556289993605,1917,1360,511
4.236843093000061,1921,1392,544
4.239531264998732,1919,1350,496
4.2422193959992,1929,1328,493
4.244907442998738,1930,1330,491
4.247595073999037,1930,1294,464
4.250280537000435,1925,1362,529
4.252969917999508,1918,1360,511
4.256153632999485,1920,1375,529
4.258888096999726,1920,1390,527
4.261616059999142,1924,1329,487
4.264342233000207,1933,1335,495
4.267068487999495,1930,1298,471
4.269793326999206,1927,1347,510
4.272520332999193,1920,1361,511
4.275246088000131,1920,1367,525
4.277969968999969,1920,1401,541
4.2807288490002975,1923,1329,482
4.283455646998846,1927,1336,489
4.286180486000376,1931,1315,473
4.288908491000257,1927,1330,497
4.2916360380004335,1904,1349,511
4.294363085999066,1918,1360,511
4.2970925489989895,1918,1392,544
4.299820430000182,1923,1346,494
4.302587226999094,1922,1329,490
4.305318400000033,1931,1327,491
4.308049279999977,1936,1295,470
4.310778285998822,1921,1363,529
4.313504499999908,1914,1358,511
4.316231921999133,1918,1381,531
4.318958136000219,1919,1364,509
4.321681850000459,1926,1328,487
4.324408812999536,1931,1335,490
4.327136235999205,1934,1303,466
4.329861283000355,1920,1349,511
4.332589621999432,1909,1360,523
4.335314293999545,1910,1365,528
4.338040632999764,1917,1397,543
4.340770054999666,1922,1328,481
4.343498226999145,1926,1335,495
4.346223983000527,1931,1313,476
4.348948029999519,1926,1330,496
4.351675161000458,1913,1360,528
4.354410915999324,1915,1357,510
4.357172922000245,1920,1393,544
4.359904969000127,1920,1344,494
4.362632516000303,1923,1331,493
4.365357605000099,1928,1327,490
4.368082027000128,1927,1296,475
4.370807532999606,1919,1361,528
4.373532497000269,1909,1349,509
4.376258168998902,1914,1382,535
4.378982465999798,1921,1364,510
4.381708138998874,1923,1328,487
4.384436726999411,1933,1337,496
4.387164816000222,1935,1306,474
4.389889447000314,1924,1351,523
4.3926176610002585,1913,1360,525
4.395344708000266,1917,1371,525
4.398067922000337,1922,1403,544
4.400794093999139,1920,1330,483
4.403524182998808,1926,1335,495
4.406250813999577,1930,1314,478
4.40897865199986,1930,1329,497
4.411704824999106,1921,1360,526
4.414429579999705,1919,1360,511
4.417193878000035,1922,1395,543
4.419923715999175,1920,1344,493
4.422650721999162,1926,1333,494
4.425375602999338,1932,1328,486
4.428102025000044,1933,1297,471
4.430829363998782,1921,1369,528
4.433556243999192,1916,1360,511
4.4362872909987345,1920,1382,531
4.439017130000138,1920,1364,506
4.441767385998901,1926,1333,484
4.444500682999205,1927,1333,494
4.447239021999849,1934,1302,471
4.449969318999138,1927,1353,526
4.452699575000224,1920,1363,526
4.455430455000169,1923,1374,528
4.458648711999558,1925,1398,539
4.461355175999415,1929,1330,486
4.4640703900004155,1931,1334,496
4.46678360399892,1931,1305,471
4.469480691999706,1931,1345,511
4.4721750730004715,1931,1365,525
4.4748679120002635,1923,1360,511
4.477561458999844,1927,1407,551
4.48025233899898,1924,1341,489
4.482943678000083,1931,1341,495
4.48563380899941,1933,1328,485
4.488325606000217,1932,1312,482
4.491022320000411,1926,1367,531
4.493717782999738,1921,1360,522
4.496413205999488,1922,1383,533
4.4991073359997245,1922,1365,511
4.501799924999432,1927,1334,489
4.50449467999897,1927,1338,496
4.507188686000518,1934,1305,470
4.509878232998744,1929,1356,511
4.512573113999679,1923,1366,526
4.515265410998836,1921,1373,528
4.517979791000471,1926,1409,546
4.520685129999038,1926,1333,482
4.523380051999993,1932,1341,496
4.526072348999151,1936,1323,479
4.528764771999704,1935,1327,495
4.531456818998777,1930,1365,530
4.534146948999478,1927,1361,511
4.536836995999693,1923,1394,542
4.5395281269993575,1927,1357,498
4.542216673999064,1930,1333,493
4.544905512999321,1930,1334,496
4.54759497699888,1931,1297,470
4.550282189999052,1936,1365,528
4.552971613000409,1933,1367,526
4.555662159998974,1930,1380,533
4.558351748999485,1931,1396,537
4.561044003999996,1926,1337,487
4.563734133998878,1932,1343,497
4.566420682000171,1934,1314,479
4.569148520999079,1935,1339,502
4.571837108998807,1925,1367,528
4.574551407000399,1920,1362,511
4.577239869999175,1922,1392,542
4.5799278340000456,1925,1348,495
4.582617422998737,1929,1334,494
4.585304927999459,1930,1329,489
4.5879921420000755,1934,1296,470
4.5906829809991905,1931,1369,534
4.593372944998919,1932,1362,523
4.596061991998795,1925,1386,534
4.598752497999158,1927,1377,524
4.601440877999266,1929,1335,493
4.604128716999185,1931,1343,496
4.606817263998892,1935,1312,475
4.609503018999021,1934,1349,511
4.612190607998855,1927,1369,528
4.614879654998731,1923,1371,525
4.617564786000003,1929,1407,551
4.620253540999329,1926,1343,488
4.622944546999861,1931,1342,496
4.625633593999737,1935,1330,487
4.62832251600048,1935,1310,484
4.6310109379992355,1927,1367,535
4.633697485000084,1925,1361,522
4.636387573998945,1923,1389,539
4.639077746000112,1923,1366,511
4.641766209999332,1926,1334,487
4.644453631999568,1932,1339,496
4.647142470999825,1934,1303,474
4.649829559999489,1926,1349,511
4.652517148999323,1917,1361,526
4.655207195999537,1921,1367,527
4.657897450999371,1925,1408,551
4.66062195700033,1926,1330,485
4.6633142119990225,1929,1340,495
4.66600496799947,1930,1323,482
4.668695472999389,1936,1323,495
4.6713852289994975,1919,1362,526
4.67407223400005,1918,1358,511
4.67675907299963,1921,1391,539
4.679447745000289,1919,1351,496
4.682135208999171,1931,1331,487
4.684825005999301,1934,1335,496
4.6875124700000015,1931,1298,467
4.690201309000258,1926,1358,528
4.692890230999183,1921,1361,522
4.69558069499908,1925,1376,528
4.698267116998977,1923,1396,537
4.700955664000503,1927,1334,484
4.703644920000443,1929,1343,497
4.7063325500002975,1933,1319,475
4.709021888998905,1934,1334,501
4.71170960299969,1927,1370,529
4.71440123299908,1927,1361,511
4.717092572000183,1926,1397,547
4.719785035998939,1929,1356,500
4.722503957998924,1931,1335,495
4.72519542199916,1935,1335,493
4.7278867610002635,1929,1296,467
4.730578266000521,1919,1359,523
4.733265979999487,1930,1363,511
4.7359551939989615,1927,1383,535
4.7386440739992395,1926,1390,527
4.741330371000004,1930,1333,482
4.744019793999541,1935,1344,496
4.746709216000454,1936,1314,479
4.749398721000034,1934,1341,510
4.752089726998747,1929,1366,525
4.754778939999596,1929,1367,527
4.75746682099998,1932,1406,551
4.760157325999899,1926,1345,491
4.762846456998886,1933,1342,494
4.765547753999272,1930,1328,490
4.768248385000334,1936,1303,475
4.770938347999618,1933,1371,533
4.773625228999663,1931,1363,511
4.776311858999179,1930,1387,538
4.779002031998971,1933,1374,511
4.7816931620000105,1934,1338,490
4.7843853760005,1932,1344,495
4.787075422998896,1936,1309,471
4.7897626779995335,1913,1346,510
4.7924503089998325,1892,1357,511
4.795137938999687,1898,1359,522
4.797825777999606,1910,1395,547
4.800515367000116,1917,1328,482
4.803204122999887,1929,1330,493
4.805893669999932,1931,1320,483
4.808581883000443,1929,1310,487
4.8112713059999805,1878,1350,523
4.813960436000343,1872,1338,506
4.816648942000029,1885,1367,533
4.819338739000159,1902,1343,496
4.82202591100031,1914,1319,485
4.824715624999953,1925,1327,492
4.827406172000337,1931,1292,464
4.830093094000404,1951,1357,511
4.8327918909999426,1954,1367,525
4.83547939699929,1942,1383,528
4.838167652000266,1940,1413,542
4.8408564910005225,1936,1342,489
4.843544995999764,1936,1345,496
4.846233918999133,1936,1326,484
4.848923506999199,1936,1334,499
4.851612345999456,1936,1374,531
4.854299602000538,1936,1367,524
4.856988731999081,1934,1401,545
4.85967769600029,1931,1360,501
4.862395910000487,1934,1341,491
4.8650882490001095,1933,1339,495
4.867782796000029,1936,1297,468
4.870503218000522,1929,1364,528
4.873194890000377,1920,1362,511
4.875883687000169,1920,1378,531
4.878573400999812,1910,1383,511
4.881262656999752,1928,1339,490
4.8839507039992895,1929,1346,498
4.886636875999102,1935,1316,477
4.889324755999041,1932,1343,505
4.892012344998875,1922,1367,528
4.8947018919989205,1919,1363,524
4.897388397999748,1923,1402,546
4.900077361999138,1926,1347,494
4.902765533999627,1929,1338,494
4.905452205999609,1935,1329,491
4.908143210999697,1932,1296,471
4.910833841999192,1925,1367,528
4.913523764000274,1921,1361,521
4.9162123530004465,1923,1382,535
4.918903482999667,1925,1376,511
4.921590821999416,1929,1333,485
4.924278577998848,1935,1343,496
4.92696849999993,1932,1311,477
4.929655255000398,1926,1347,511
4.932343718999618,1915,1363,511
4.935032307999791,1915,1363,511
4.93772231299954,1922,1405,551
4.940412193998782,1926,1330,486
4.943106115999399,1932,1339,496
4.945796287998746,1935,1327,486
4.948486793999109,1931,1310,482
4.951175631998922,1920,1367,528
4.953863138000088,1915,1357,511
4.956551768000281,1919,1386,541
4.959240066000348,1921,1360,510
4.96192594599961,1929,1331,486
4.964614909999,1933,1338,496
4.967302914999891,1933,1303,471
4.969990587000211,1920,1347,511
4.972680259999834,1904,1359,511
4.975366931999815,1907,1363,524
4.978053687000283,1918,1403,549
4.980742067999017,1924,1328,486
4.983428322999316,1927,1335,496
4.98611512000025,1933,1321,483
4.988806458999534,1935,1321,493
4.9914937559988175,1910,1361,528
4.994179761999476,1905,1350,511
4.996869808999691,1915,1385,537
4.999558563999017,1919,1349,499
5.0022456530005,1928,1330,487
5.004932908999763,1929,1331,494
5.007622496999829,1936,1297,467
5.010360836000473,1921,1358,528
5.013080425000226,1911,1360,523
5.015774430999954,1915,1368,528
5.018493477999073,1920,1391,533
5.021186232999753,1923,1330,482
5.023878197000158,1933,1339,493
5.026568327999485,1932,1314,479
5.029256499999974,1934,1335,502
5.031946504999723,1920,1364,527
5.034637426999325,1919,1360,524
5.0373277660000895,1920,1398,546
5.040018854999289,1921,1347,496
5.0427090270004555,1931,1333,490
5.045397533000141,1933,1328,489
5.048086204998981,1933,1293,464
5.050776001999111,1921,1365,528
5.053462465999473,1913,1357,523
5.0561515129993495,1920,1377,528
5.058841893000135,1922,1376,511
5.06153110699961,1922,1331,489
5.064247279999108,1935,1341,496
5.066940618000444,1934,1311,478
5.0696541239994986,1929,1343,511
5.072393004000332,1919,1365,525
5.075090009999258,1919,1362,511
5.077779015000488,1920,1401,547
5.080470062999666,1923,1332,484
5.083160067999415,1929,1335,495
5.085848990000159,1934,1326,489
5.088541578999866,1932,1311,486
5.091232708999087,1918,1363,530
5.093921047999174,1915,1357,511
5.096612594999897,1920,1383,534
5.099302558999625,1920,1360,507
5.1019934809992264,1926,1329,490
5.104684403999272,1933,1337,496
5.107374076000269,1934,1302,465
5.110061622999638,1930,1351,522
5.112750419999429,1919,1360,523
5.115440342000511,1920,1367,525
5.1181277639989275,1925,1408,550
5.120816978000221,1924,1331,483
5.123505817000478,1930,1341,495
5.126193613999931,1936,1322,482
5.128882244998749,1936,1326,495
5.131570874998943,1910,1356,511
5.134261880999475,1920,1360,511
5.136954052999499,1925,1392,543
5.139643475000412,1925,1357,501
5.142331729999569,1933,1334,485
5.145020985999508,1933,1338,496
5.147711532999892,1933,1299,469
5.150400287999219,1934,1361,528
5.153090543999497,1922,1364,522
5.155782341000304,1923,1375,528
5.158498347000204,1928,1396,537
5.161190393999277,1928,1335,482
5.16388114899928,1935,1342,496
5.166575904999263,1919,1306,468
5.169267368999499,1935,1339,499
5.171958957000243,1922,1366,528
5.174648045998765,1920,1362,511
5.177336176999233,1922,1397,540
5.180034015000274,1925,1349,498
5.182740603999264,1931,1333,494
5.185431525998865,1927,1328,492
5.188122989999101,1936,1296,464
5.190812454000479,1927,1369,533
5.193499917999361,1920,1362,523
5.1961877979993005,1925,1382,531
5.198879804000171,1926,1381,527
5.201570683999307,1927,1331,487
5.2042597319996275,1933,1343,498
5.206950236999546,1930,1311,475
5.209638909000205,1933,1346,511
5.212327455999912,1920,1365,525
5.215014086999872,1919,1365,525
5.21770425899922,1922,1403,549
5.22039276400028,1922,1339,487
5.223081770000135,1933,1337,496
5.225769816999673,1932,1327,489
5.228459488998851,1935,1303,480
5.231155244999172,1927,1370,530
5.233844500000487,1919,1360,511
5.236532463999538,1921,1387,538
5.239221093999731,1924,1363,511
5.241910183000073,1926,1332,489
5.244602979999399,1931,1339,496
5.247295277999001,1933,1307,471
5.249983865998729,1927,1350,511
5.25267241399888,1922,1363,526
5.255362419000448,1920,1367,526
5.258051173999775,1922,1408,553
5.260742221998953,1926,1334,486
5.263432976998956,1927,1340,496
5.26615156600019,1933,1324,483
5.268844362999516,1934,1323,494
5.271535869000218,1921,1365,530
5.274247290999483,1920,1357,511
5.276972212999681,1920,1391,543
5.279717134999373,1923,1356,500
5.282411431999208,1931,1328,491
5.285145521000231,1931,1334,496
5.287836818999494,1935,1296,466
5.290551115998824,1929,1361,527
5.293240871000307,1916,1360,522
5.295931042999655,1920,1375,528
5.298623507000229,1924,1391,531
5.301313804000529,1923,1333,487
5.30400580999958,1932,1341,496
5.306697148998865,1934,1315,477
5.3093878210002,1935,1341,505
5.3120809929987445,1914,1363,526
5.314770872999361,1915,1360,511
5.317458461999195,1917,1393,545
5.320150008999917,1921,1346,494
5.322840639999413,1932,1334,492
5.325530144998993,1933,1329,491
5.328222525999081,1936,1294,470
5.330913448000501,1920,1363,529
5.333601661999637,1919,1360,511
5.33629320900036,1920,1380,532
5.338981339000384,1921,1373,511
5.341672512000514,1926,1333,487
5.34436422500039,1931,1341,496
5.347054898000351,1936,1311,470
5.349742111000523,1925,1344,509
5.3524328250005055,1924,1360,525
5.355126705999282,1920,1363,525
5.357815085999391,1927,1406,551
5.360504882999521,1923,1337,486
5.363195054998869,1933,1338,493
5.365882353000416,1935,1326,483
5.368570565999107,1923,1296,471
5.371259904999533,1925,1366,530
5.373949160999473,1921,1360,511
5.376641623999603,1926,1388,538
5.379330671999924,1922,1362,503
5.382017343999905,1927,1333,491
5.384704349000458,1930,1340,496
5.387400145998981,1934,1303,471
5.390092485000423,1926,1349,511
5.39278315699994,1919,1364,527
5.395474287999605,1921,1370,527
5.398163918000137,1929,1410,558
5.400854632000119,1922,1334,486
5.405380682999748,1933,1341,496
5.408079021999583,1935,1280,465
5.410771568998825,1927,1358,528
5.413461783000457,1921,1355,510
5.416150287999699,1926,1377,528
5.4188392519990884,1927,1382,528
5.421527132999472,1924,1330,487
5.424216596000406,1934,1342,498
5.426904935000493,1933,1313,479
5.429592731999946,1930,1340,507
5.432283195999844,1921,1366,525
5.434975992999171,1920,1363,522
5.43766949899873,1924,1401,549
5.440361421000489,1930,1344,489
5.443050885000048,1935,1338,495
5.445741056999395,1937,1330,491
5.448436353999568,1936,1299,475
5.451127610000185,1875,1355,527
5.453816907000146,1863,1339,509
5.456514953999431,1878,1360,531
5.459206917999836,1895,1346,505
5.461894797999776,1913,1312,482
5.464585095000075,1921,1326,496
5.467310058998919,1924,1296,470
5.470002730999113,1931,1343,510
5.472695153999666,1931,1361,527
5.475385534000452,1931,1367,527
5.478074205999292,1931,1408,550
5.4807627119989775,1933,1335,485
5.483453049999298,1933,1339,498
5.486141014000168,1934,1326,489
5.488830477999727,1936,1319,491
5.491520191999371,1959,1377,534
5.494211281000389,1955,1373,525
5.496910202999061,1949,1407,543
5.499600666998958,1936,1366,502
5.502287921999596,1938,1346,496
5.50497742799962,1936,1347,496
5.507666432999031,1936,1310,478
5.510354563999499,1926,1362,529
5.51304356899891,1926,1367,526
5.515731740999399,1923,1377,528
5.518419537998852,1927,1403,545
5.521139210999536,1931,1338,486
5.523829507999835,1930,1342,495
5.52654063800037,1931,1323,478
5.529230684998765,1936,1330,496
5.531922815998769,1924,1367,528
5.534614946000147,1921,1360,511
5.53730624399941,1922,1394,541
5.539996207000513,1923,1355,498
5.542685795999205,1934,1333,490
5.545373926999673,1935,1333,489
5.5480634739997186,1936,1297,464
5.550752854000166,1927,1365,528
5.553441650999957,1926,1360,511
5.556130573999326,1923,1381,529
5.558819911999308,1925,1391,529
5.5615070429994375,1925,1334,489
5.564197382000202,1934,1342,496
5.566888928999106,1935,1316,475
5.569578475999151,1931,1343,501
5.572267522999027,1920,1366,525
5.574956444999771,1915,1361,511
5.577644117000091,1920,1398,549
5.580332789999375,1923,1345,486
5.5830207119997795,1931,1338,496
5.585711175999677,1935,1329,487
5.5884010560002935,1935,1296,471
5.59109385299962,1923,1367,528
5.593777358999432,1919,1360,511
5.596465781000006,1919,1381,531
5.599160120000306,1922,1371,511
5.601850832999844,1926,1328,477
5.604541963999509,1935,1343,496
5.607233552998878,1935,1311,475
5.609923558000446,1931,1349,511
5.612614854999265,1909,1363,525
5.615302819000135,1909,1363,523
5.617991032999271,1919,1401,550
5.620682079999824,1923,1330,486
5.623371919000419,1933,1340,495
5.626059590998921,1933,1327,484
5.628750054998818,1936,1311,485
5.631442309999329,1920,1363,530
5.634133023999311,1914,1358,511
5.636824530000013,1919,1387,538
5.639514951999445,1922,1360,505
5.6422036240001034,1930,1331,489
5.644893295999282,1933,1337,496
5.647582634999708,1934,1302,470
5.6502710149998165,1926,1354,511
5.652960813000391,1914,1361,522
5.655651400998977,1918,1369,526
5.658338699000524,1920,1407,541
5.6610271619993,1925,1332,483
5.663718375999451,1934,1341,496
5.666409047998968,1935,1318,480
5.669154261999211,1936,1327,496
5.671848683999997,1917,1366,528
5.674561272999199,1916,1360,511
5.6772537369997735,1919,1391,544
5.679943658999036,1920,1350,499
5.682631789999505,1930,1333,490
5.685319378999338,1932,1333,491
5.688009883999257,1935,1296,465
5.690698180998879,1923,1362,528
5.693389436999496,1915,1359,511
5.696080358999097,1919,1372,528
5.698769323000306,1921,1392,528
5.7014585779998015,1923,1330,486
5.704150208999636,1931,1335,493
5.706840505999935,1934,1317,477
5.7095302199995785,1934,1341,503
5.712223725000513,1923,1366,528
5.714916771999924,1923,1361,511
5.717605485999229,1924,1398,547
5.720295990999148,1927,1349,496
5.722987580000336,1931,1339,493
5.725678835999133,1933,1330,491
5.72837063299994,1935,1296,469
5.731062097000176,1929,1370,531
5.733750768999016,1929,1362,511
5.736440898999717,1927,1381,536
5.739130030000524,1927,1377,511
5.741819994000252,1934,1335,486
5.7445093329988595,1931,1344,496
5.747198795999793,1936,1311,471
5.749887967998802,1935,1346,511
5.752578182000434,1930,1369,527
5.755267688000458,1926,1367,527
5.757956985000419,1931,1407,551
5.760647323999365,1930,1343,488
5.763338621000003,1935,1341,492
5.766026793000492,1934,1328,487
5.7687200069995015,1934,1310,485
5.771409511999082,1933,1366,528
5.77409818399974,1934,1365,511
5.776790107000124,1933,1392,538
5.779478111999197,1923,1370,511
5.782166076000067,1930,1337,490
5.784857122998801,1936,1344,497
5.787545629000306,1931,1309,478
5.790233591998913,1935,1357,511
5.792920764999508,1936,1367,529
5.795611436999025,1933,1377,530
5.799175152000316,1930,1414,555
5.801866657999199,1933,1342,490
5.804556496999794,1933,1334,496
5.807367543999135,1934,1301,468
5.810067173999414,1930,1331,501
5.812763679999989,1926,1355,510
5.815455518999443,1927,1360,508
5.818145441000524,1927,1401,543
5.820835820999491,1926,1330,479
5.823527534999812,1927,1333,489
5.826218415999392,1932,1319,473
5.828909170999395,1933,1311,480
5.831599467999695,1932,1366,511
5.834287056999528,1931,1360,507
5.836976103999405,1930,1403,548
5.839664068000275,1931,1375,508
5.842351073999453,1927,1341,489
5.845039203999477,1935,1344,496
5.847726668000178,1934,1307,471
5.850414298000032,1936,1359,528
5.853133053999045,1935,1372,526
5.855826101000275,1933,1378,528
5.8585403979996045,1927,1409,544
5.861230861999502,1931,1336,487
5.863920158999463,1933,1344,497
5.866608289999931,1932,1319,480
5.869332836999092,1935,1330,500
5.872024591999434,1937,1373,530
5.874712265000198,1936,1366,511
5.877409937000266,1931,1379,531
5.880128566999701,1926,1345,492
5.88283486399996,1930,1328,480
5.885524952998821,1929,1328,481
5.888217708999946,1931,1291,457
5.890909630999886,1936,1361,523
5.893598802998895,1936,1364,506
5.896287141998982,1934,1383,525
5.898977730999832,1931,1390,511
5.901665903000321,1926,1335,478
5.9043554500003665,1930,1343,490
5.907046788999651,1930,1311,465
5.909735793999062,1936,1342,497
5.912424840998938,1943,1370,523
5.915114514000379,1937,1374,511
5.917800436000107,1935,1407,542
5.92049035799937,1923,1345,484
5.923181279998971,1927,1338,489
5.9258711189995665,1929,1329,483
5.928564374000416,1927,1298,467
5.931255837998833,1936,1370,526
5.933941093999238,1935,1363,511
5.936629556999833,1933,1389,529
5.939317021000534,1926,1374,507
5.942005068000071,1927,1332,482
5.944693739998911,1927,1341,491
5.947387578999042,1925,1306,466
5.950081126000441,1936,1348,502
5.95277188199907,1938,1366,511
5.955463095999221,1934,1372,511
5.958153434999986,1930,1409,544
5.960843273000137,1926,1339,479
5.9635308619999705,1926,1340,492
5.966218117999233,1927,1323,478
5.968906747999426,1926,1309,478
5.971593128999302,1935,1367,523
5.97427988399977,1934,1361,503
5.97697097299897,1927,1390,530
5.979661311999735,1923,1362,496
5.982348108998849,1922,1330,478
5.985035448000417,1924,1334,486
5.98772778700004,1926,1300,463
5.990422541999578,1936,1349,511
5.993146798000453,1936,1365,511
5.9958394699988276,1935,1377,523
5.998552142000335,1931,1408,538
6.001240522000444,1922,1331,475
6.003931027998988,1922,1335,485
6.006619575000514,1923,1315,470
6.009307996999269,1927,1326,487
6.012047668999003,1941,1366,511
6.014764507999644,1937,1366,509
6.017457722000472,1933,1399,535
6.020148727999185,1922,1357,493
6.0228378159990825,1922,1333,483
6.025525529999868,1921,1330,482
6.028217244000189,1923,1290,457
6.030906915999367,1939,1364,523
6.033595337999941,1946,1367,511
6.0362839689987595,1938,1385,526
6.03897164099908,1931,1392,524
6.041657395999209,1923,1335,480
6.0443482769987895,1921,1340,489
6.047038241000337,1926,1311,469
6.049727788000382,1932,1339,496
6.0524190020005335,1947,1363,511
6.055108423999627,1941,1372,511
6.0577959709989955,1934,1406,541
6.060482934999527,1921,1348,484
6.063170064999213,1922,1338,486
6.06585811199875,1922,1328,478
6.068547535000107,1920,1294,463
6.071263997999267,1945,1370,527
6.0739528789999895,1950,1367,509
6.076645675999316,1936,1392,530
6.079342973000166,1931,1379,503
6.082058562000384,1924,1337,480
6.084751567999774,1922,1343,490
6.087440072999016,1925,1303,464
6.090128453999569,1929,1346,503
6.092817917000502,1935,1366,511
6.0955086310004845,1933,1371,511
6.098195927999768,1931,1408,542
6.100885641999412,1921,1334,480
6.103575438999542,1925,1337,491
6.106262527999206,1923,1322,480
6.108951492000415,1925,1307,477
6.111641497000164,1875,1352,511
6.1143320859991945,1867,1334,496
6.117022299999007,1875,1360,523
6.119711929999539,1887,1335,489
6.122400727999775,1899,1302,469
6.125090816000011,1909,1314,479
6.127785614000459,1913,1282,453
6.130504201999429,1946,1347,506
6.133194165999157,1975,1371,511
6.1358853799993085,1967,1385,525
6.138581343999249,1947,1416,541
6.1412687659994845,1930,1343,482
6.143955854999149,1926,1343,491
6.146647109999321,1920,1322,471
6.149335740999959,1922,1325,483
6.152024621000237,1969,1381,523
6.154714418000367,1971,1382,511
6.157403007000539,1954,1408,544
6.1600913040001615,1935,1366,496
6.162780892998853,1927,1343,490
6.165468399000019,1917,1337,486
6.168163820999325,1920,1296,462
6.170857117998821,1940,1367,524
6.173544581999522,1950,1370,511
6.176234378999652,1942,1387,528
6.178927008999381,1930,1399,528
6.181620182000188,1921,1335,476
6.1843123540002125,1921,1342,490
6.187000567999348,1920,1312,468
6.18969019799988,1925,1333,495
6.192378244999418,1952,1374,526
6.195064583998828,1950,1370,511
6.197750923000058,1936,1407,544
6.200440636999701,1925,1354,493
6.203129183999408,1920,1335,490
6.205816648000109,1920,1328,483
6.20850481999878,1917,1289,460
6.2111964499999885,1948,1370,527
6.213886080999146,1951,1369,511
6.216576835999149,1939,1389,530
6.219264549999934,1930,1387,511
6.221951805999197,1921,1338,481
6.2246400189997075,1920,1341,489
6.227330316000007,1919,1308,457
6.230020613998931,1931,1344,497
6.232710201998998,1950,1370,511
6.235400833000313,1943,1369,510
6.238087671999892,1934,1408,547
6.240775844000382,1922,1341,480
6.243466015999729,1917,1335,487
6.246154979999119,1917,1322,479
6.248844818999714,1915,1297,466
6.251533823999125,1941,1367,527
6.2542216629990435,1941,1362,509
6.256911377000506,1934,1391,530
6.259608090998881,1922,1367,499
6.262299178999456,1918,1331,479
6.264989477000199,1917,1335,485
6.267683107000266,1917,1297,461
6.270370987998831,1934,1345,499
6.273095784999896,1945,1370,511
6.27578712399918,1936,1377,511
6.278514670999357,1920,1413,545
6.281208467999022,1919,1333,477
6.283898681998835,1918,1334,487
6.28658985400034,1915,1316,473
6.289277900999878,1917,1313,482
6.291967114999352,1941,1365,511
6.294655244999376,1937,1361,509
6.2973415839987865,1934,1392,537
6.300032506000207,1919,1357,494
6.302722886999618,1915,1329,480
6.30542589200013,1915,1328,485
6.308117688999118,1915,1291,451
6.310809237000285,1936,1360,511
6.313495991998934,1941,1363,510
6.316185413999847,1936,1377,525
6.318876544999512,1927,1397,528
6.321565299998838,1905,1321,468
6.3242606809999415,1914,1334,483
6.326960227999734,1917,1307,465
6.329657483000119,1920,1328,491
6.33234890499989,1949,1369,511
6.335040952999407,1942,1366,511
6.3377317909998965,1935,1403,540
6.34042575499916,1922,1348,491
6.343116260999523,1918,1332,482
6.345803599999272,1916,1326,479
6.348492355000417,1914,1284,451
6.351184236000336,1942,1362,511
6.35388461599905,1952,1365,510
6.356576579999455,1939,1389,527
6.359270918999755,1931,1386,511
6.361958757999673,1919,1333,477
6.364647595999486,1915,1341,490
6.367338101999849,1914,1303,463
6.370026774000507,1931,1341,500
6.372716529000172,1957,1373,524
6.3754043680000905,1952,1374,511
6.378094331999819,1936,1409,543
6.380784670998764,1923,1344,483
6.383475135000481,1910,1334,485
6.386163139999553,1915,1323,478
6.388853311998901,1913,1296,467
6.391541275999771,1952,1370,528
6.394228490000387,1954,1369,511
6.39691707899874,1941,1395,534
6.399606750999737,1925,1375,508
6.402296464999381,1918,1335,483
6.404985303999638,1913,1335,488
6.407674850999683,1913,1298,461
6.410363688999496,1936,1348,500
6.413053361999118,1961,1375,511
6.4157432840002,1952,1381,523
6.418431247999251,1936,1418,547
6.42115892000038,1920,1338,478
6.423852174999411,1917,1339,484
6.426567680999142,1911,1315,475
6.429259061000266,1914,1309,479
6.431949525000164,1962,1373,525
6.434638531000019,1963,1373,507
6.437327493998964,1946,1403,530
6.440014499999961,1929,1363,496
6.442703213999266,1919,1335,482
6.44539134399929,1916,1330,490
6.448079432999293,1913,1295,463
6.450768188000438,1949,1361,511
6.453457943998728,1965,1375,511
6.45615344900034,1953,1390,527
6.458845912999095,1936,1411,536
6.461535168999035,1920,1339,478
6.464226423999207,1917,1340,494
6.466915512999549,1911,1311,470
6.469602310000482,1919,1328,490
6.47229144099947,1966,1376,522
6.475017863000176,1964,1374,511
6.4777094929995656,1943,1408,540
6.480401040998913,1928,1355,496
6.483125128999745,1918,1336,486
6.48584484300045,1914,1328,485
6.488540431999354,1915,1298,467
6.491236937999929,1959,1385,539
6.493930942999214,1971,1386,529
6.496623614999407,1954,1402,543
6.499318870999559,1937,1395,528
6.502010042999245,1925,1344,495
6.504706173000159,1921,1346,502
6.507401553999443,1918,1307,475
6.510094183999172,1933,1345,511
6.512789189999239,1968,1379,532
6.5154833199994755,1964,1387,528
6.518178033998993,1947,1419,553
6.520875914999124,1927,1350,494
6.523572254000101,1920,1339,490
6.526264050999089,1917,1328,489
6.528965139999855,1914,1301,479
6.531664269999965,1967,1379,538
6.53435723399889,1966,1378,527
6.53705269800048,1951,1403,543
6.539747327999066,1935,1381,511
6.542439875000127,1927,1342,495
6.545229463999931,1919,1344,498
6.547928219999449,1917,1302,469
6.550628599999982,1950,1360,526
6.5533239809992665,1969,1385,525
6.556019902998742,1963,1392,529
6.558716532999824,1946,1423,550
6.56140745599987,1930,1344,487
6.5641016279987525,1922,1344,498
6.5667955499993695,1920,1321,481
6.5694858049992035,1919,1328,496
6.572180810999271,1971,1378,530
6.5748769829988305,1969,1379,526
6.577576154999406,1955,1413,548
6.580274410998754,1935,1365,505
6.58297229100026,1922,1344,495
6.585665837999841,1919,1339,496
6.588358926999717,1920,1296,466
6.591048432999742,1955,1373,531
6.593740771999364,1974,1382,528
6.596432526999706,1964,1396,537
6.599122407998948,1940,1409,537
6.601813412999036,1931,1344,483
6.60450933500033,1920,1346,498
6.607201631999487,1920,1316,476
6.609894096000062,1930,1341,503
6.6125919349997275,1974,1383,529
6.615290814999753,1970,1386,525
6.617984237998826,1954,1422,551
6.62067903499883,1934,1360,496
6.623375748999024,1926,1348,495
6.626066921000529,1920,1328,491
6.628768050999497,1920,1296,476
6.631464722999226,1967,1383,538
6.634157520998997,1980,1386,528
6.6368526089991065,1959,1405,541
6.639547906999724,1942,1392,526
6.642242079000425,1929,1346,494
6.644937208999181,1923,1349,501
6.647634630999164,1920,1312,475
6.650328345000162,1946,1359,511
6.653022684000462,1989,1392,530
6.65571852299945,1973,1396,532
6.658410402998925,1955,1429,560
6.661133408999376,1936,1356,491
6.663829955999972,1925,1351,498
6.666549087000021,1921,1328,487
6.669242674999623,1922,1315,493
6.671938264000346,1978,1386,541
6.6746341449998,1979,1386,529
6.677364441999089,1966,1413,549
6.680080697000449,1943,1382,511
6.6827814529988245,1934,1346,498
6.685475958000097,1919,1342,496
6.688169297000059,1920,1301,471
6.690863136000189,1969,1373,531
6.6935529749989655,1977,1380,524
6.696244229999138,1976,1405,539
6.698935819000326,1953,1424,553
6.701627615999314,1936,1353,494
6.704323079999085,1925,1353,496
6.707018376999258,1921,1325,484
6.709712674999537,1931,1335,506
6.712411512999097,1991,1389,534
6.715104685999904,1990,1392,530
6.717802107999887,1966,1424,557
6.720499113000187,1943,1376,511
6.723193951998837,1931,1347,497
6.725885665999158,1926,1341,496
6.72858358799931,1921,1294,464
6.731284634999611,1978,1389,539
6.733977806999974,1994,1393,530
6.736670979000337,1979,1413,545
6.7393671099998755,1956,1410,534
6.742060739999943,1936,1355,496
6.744757745998868,1933,1357,502
6.747452417999739,1927,1321,480
6.750145714999235,1929,1349,511
6.752840553999704,1929,1373,528
6.755534350999369,1925,1371,511
6.758225481999034,1917,1403,549
6.76091777900001,1913,1339,493
6.763612159000331,1911,1332,496
6.7663019569990865,1913,1319,485
6.7689954199995555,1917,1296,479
6.771689758999855,1993,1386,541
6.774385347998759,2003,1389,529
6.77707947899944,1981,1417,549
6.779781109000396,1952,1394,526
6.782499655999345,1927,1353,496
6.785193202998926,1930,1350,501
6.787885001000177,1923,1310,475
6.790577088999271,1979,1373,528
6.793269427998894,2030,1406,535
6.795959099999891,2013,1418,541
6.798653605999789,1978,1451,569
6.801345402998777,1954,1366,496
6.804038074998971,1935,1360,502
6.80673503899925,1925,1337,490
6.809428835998915,1928,1328,496
6.812125841999659,1994,1393,539
6.814819138999155,1990,1392,528
6.817512268999053,1968,1424,549
6.82020748299874,1946,1382,509
6.822902279998743,1934,1350,496
6.825594161000481,1929,1347,496
6.828294499999174,1926,1303,469
6.830993629999284,1973,1375,528
6.833684719000303,1999,1396,529
6.836380057999122,1982,1408,539
6.839077479999105,1959,1427,545
6.841770693999933,1937,1360,493
6.844463823999831,1926,1358,499
6.847160080000322,1923,1326,483
6.849853417999839,1936,1344,507
6.852546506999715,1998,1393,539
6.855241137998746,1994,1396,529
6.857931184998961,1969,1430,551
6.860624689999895,1947,1376,503
6.863319070998841,1935,1355,493
6.8660093679991405,1930,1343,496
6.8687046649993135,1924,1301,470
6.871401170999889,1979,1389,542
6.874095175999173,1995,1394,530
6.876785598000424,1978,1413,543
6.879509103999226,1951,1408,529
6.882206567999674,1936,1353,495
6.88490198999898,1927,1357,498
6.887598662000528,1926,1321,478
6.890292875999876,1952,1360,511
6.892986422999456,1995,1393,538
6.895679011999164,1987,1399,535
6.8983710590000555,1965,1435,560
6.9010629809999955,1945,1362,497
6.903760653000063,1936,1358,502
6.906448534000447,1930,1337,495
6.909185038999567,1926,1314,485
6.911880752999423,1985,1392,544
6.914585299999089,1994,1392,533
6.917277098000341,1969,1421,554
6.919972810999752,1952,1392,511
6.922665734000475,1936,1355,496
6.9253569889988285,1933,1353,501
6.928063952998855,1929,1313,474
6.930759875000149,1968,1370,528
6.933455381000385,1998,1387,528
6.936152177999247,1983,1409,538
6.938859017000141,1963,1439,560
6.941560229999595,1939,1360,496
6.944260027999917,1931,1358,500
6.946955282999625,1926,1329,483
6.949649705000411,1930,1338,502
6.952347794000161,1991,1391,539
6.9550438829992345,1989,1392,530
6.957736262998878,1967,1424,553
6.9604331020000245,1946,1375,509
6.963130148998971,1936,1354,495
6.965825862998827,1927,1346,496
6.968524826999783,1924,1302,465
6.971220123999956,1978,1386,539
6.973912420999113,2000,1393,531
6.976607176999096,1984,1408,551
6.9793022659996495,1961,1423,544
6.98198993799997,1941,1360,495
6.984684568000375,1933,1359,507
6.98737886500021,1925,1326,482
6.990071246000298,1950,1354,510
6.992763959999138,2005,1397,538
6.995457881999755,1994,1401,535
6.998149011998976,1971,1434,560
7.000844059999508,1950,1375,502
7.00354035700002,1936,1360,499
7.0062349870004255,1927,1344,496
7.008931368000049,1927,1307,477
7.011626706000243,1987,1392,540
7.014368128999195,1999,1397,528
7.0171117589998175,1979,1421,546
7.019809347999399,1957,1401,528
7.0225323119993845,1938,1357,496
7.025228483998944,1934,1356,498
7.027924115000133,1930,1315,478
7.0306218289988465,1968,1371,526
7.033315250999294,2010,1403,533
7.0360099649988115,1996,1405,534
7.038705177999873,1969,1449,563
7.041397683999094,1945,1360,496
7.044092230999013,1936,1360,505
7.046786736000286,1927,1334,490
7.049478283999633,1925,1328,496
7.052173580999806,2010,1394,545
7.054869294999662,2011,1401,533
7.057560883000406,1983,1430,557
7.060254930998781,1959,1392,511
7.0629511030001595,1937,1358,500
7.0656453169995075,1936,1354,499
7.068340488998729,1927,1312,474
7.071033285999874,1987,1386,542
7.073724333000428,2015,1402,539
7.076417296999352,1997,1418,546
7.0791129270000965,1968,1437,557
7.081803891000163,1946,1363,496
7.084498729998813,1935,1361,507
7.087233276999541,1929,1329,487
7.0899752829991485,1941,1348,510
7.092675497000528,2014,1401,538
7.09536966899941,2007,1401,530
7.09805975800009,1980,1437,559
7.10074842999893,1953,1385,506
7.103439476999483,1936,1359,500
7.106126732000121,1931,1345,497
7.108822779999173,1927,1303,469
7.111513284999091,1997,1394,543
7.114200498999708,2016,1402,534
7.116889920998801,1991,1424,549
7.119579176000116,1967,1419,530
7.122266681999463,1946,1363,496
7.12495714599936,1934,1360,503
7.127649901000041,1933,1325,479
7.130340739999156,1957,1360,511
7.133032996000111,2009,1404,538
7.135724667999966,2000,1407,531
7.138411714999165,1972,1431,556
7.1411393039998075,1951,1371,499
7.143834851000065,1936,1360,505
7.146548980999796,1932,1343,496
7.149239653999757,1931,1319,487
7.151928534000035,2011,1403,546
7.15461858100025,2019,1407,536
7.157309669999449,1991,1430,550
7.160000509000383,1963,1406,527
7.162688972999604,1939,1362,496
7.165377602999797,1935,1360,502
7.168067941998743,1927,1318,479
7.170758406000459,1981,1375,528
7.173445536000145,2025,1407,538
7.176136582998879,2005,1420,542
7.1788256719992205,1980,1456,567
7.181512261000535,1952,1367,496
7.184201017000305,1938,1365,508
7.186892063999039,1929,1340,494
7.189581485999952,1934,1335,497
7.1922709079990454,2017,1405,543
7.1949584129997675,2021,1407,534
7.197646210999665,1993,1439,558
7.200334798999393,1961,1394,511
7.20302634699874,1941,1363,499
7.205713518998891,1934,1357,498
7.208403107999402,1931,1310,471
7.211092487999849,1987,1387,539
7.213781284999641,2027,1407,535
7.216471665999052,2000,1424,544
7.219161920998886,1975,1441,557
7.221852052000031,1950,1366,497
7.224543057000119,1936,1365,505
7.227233478999551,1929,1334,487
7.229926150999745,1940,1347,510
7.232615949000319,2018,1403,542
7.235305161999349,2011,1408,533
7.237992709000537,1989,1441,560
7.240682256999207,1958,1379,502
7.243370594998851,1942,1361,500
7.246057767999446,1931,1353,501
7.248745939999935,1930,1307,471
7.251434779000192,2001,1398,544
7.254125076000491,2029,1408,535
7.256815914999606,2003,1426,548
7.259504087000096,1972,1427,542
7.262191133999295,1948,1366,496
7.26488088899896,1936,1364,507
7.267569395000464,1931,1330,487
7.270256691999748,1962,1362,525
7.272947280998778,2032,1412,545
7.275637286000347,2018,1418,542
7.278325457999017,1989,1451,562
7.281049838999024,1960,1382,506
7.283755010999812,1940,1366,503
7.2865790169998945,1933,1347,496
7.289293480998822,1933,1318,487
7.292002778000096,2017,1403,546
7.294695491998937,2026,1408,537
7.297383871999045,2000,1431,555
7.300072377998731,1968,1407,528
7.302759924999918,1943,1363,497
7.305448888999308,1935,1361,503
7.308139685999777,1930,1323,479
7.310852024998894,1985,1381,531
7.313549029999194,2032,1410,541
7.316244869000002,2011,1424,542
7.318935290999434,1983,1457,563
7.3216285050002625,1955,1372,497
7.324321759999293,1937,1366,499
7.327011223998852,1935,1343,493
7.329700854999828,1933,1339,500
7.332391652000297,2029,1401,542
7.335083156998735,2027,1410,533
7.337769788000514,1999,1445,558
7.340457877000517,1953,1397,511
7.34314558999904,1942,1359,496
7.3458330539997405,1937,1359,501
7.348521642999913,1932,1315,476
7.35121181499926,1990,1392,541
7.353905986999962,2022,1407,535
7.35659753499931,2000,1424,545
7.359285372998784,1973,1439,551
7.361972962000436,1957,1367,496
7.364662342999509,1942,1367,507
7.3673511809993215,1936,1337,489
7.370039769999494,1936,1350,510
7.372728483998799,1956,1388,535
7.3754177809987596,1945,1381,528
7.378105702999164,1936,1414,555
7.380795375998787,1928,1360,503
7.38348613099879,1920,1343,496
7.3861753860001045,1923,1333,495
7.3888671419990715,1923,1296,464
7.391554896999878,2022,1395,542
7.394244610999522,2052,1411,535
7.396933533000265,2018,1430,547
7.399621288999697,1981,1427,537
7.402309502998833,1955,1371,495
7.404997257999639,1936,1369,510
7.407686221999029,1931,1330,481
7.410372643998926,1977,1370,524
7.413060315999246,2064,1422,546
7.41574873799982,2054,1431,543
7.418440911000289,2009,1461,570
7.421173415999874,1968,1392,507
7.42386404699937,1949,1376,511
7.4265562599994155,1923,1343,494
7.429244433000349,1934,1326,490
7.431934979998914,2018,1408,546
7.4346253599997,2031,1414,538
7.43731303200002,2005,1439,547
7.440000995999071,1971,1416,529
7.442689460000111,1945,1367,498
7.445377089999965,1936,1359,496
7.448067053999694,1931,1327,481
7.450756850999824,1983,1379,528
7.4534468990004825,2032,1412,542
7.456138486999407,2016,1424,542
7.458830867999495,1983,1457,571
7.461517747999096,1953,1371,501
7.464207503999205,1937,1366,510
7.466896800999166,1935,1343,495
7.469583848000184,1931,1331,497
7.472274519999701,2021,1408,545
7.4749651919992175,2026,1409,532
7.477651197999876,1998,1440,559
7.480340369998885,1969,1403,511
7.483029084000009,1943,1367,498
7.4857157559999905,1933,1360,501
7.488403594999909,1935,1318,473
7.491094850000081,1994,1390,538
7.493782313998963,2031,1412,541
7.496469777999664,2004,1424,547
7.499156157999096,1979,1447,558
7.501843414000177,1955,1370,496
7.504530877999059,1939,1366,508
7.507218216000183,1936,1339,490
7.509906429999319,1939,1351,506
7.512595352000062,2018,1407,544
7.515289441000277,2020,1410,534
7.517979488000492,1990,1441,558
7.520668660999945,1966,1392,511
7.523356957999567,1943,1363,498
7.526045504999274,1936,1359,498
7.528734134999468,1931,1313,477
7.531422015999851,2001,1396,540
7.534109145999537,2025,1411,535
7.536799317998884,2004,1427,546
7.5394881989996065,1973,1434,545
7.54217578799944,1950,1369,498
7.544864834999316,1937,1365,509
7.547554589998981,1933,1328,478
7.5502425960003166,1955,1360,511
7.552929434999896,2026,1409,545
7.555621564999456,2021,1415,535
7.5583085710004525,1993,1447,558
7.560995575999186,1962,1389,510
7.563682623000204,1942,1365,506
7.566370086999086,1934,1350,498
7.569057384000189,1931,1311,482
7.571744973000023,2002,1398,546
7.574431352999454,2022,1407,535
7.577160816999822,1998,1429,551
7.579852572998789,1970,1420,533
7.582544369999596,1945,1367,501
7.585232416999133,1936,1365,508
7.587921672999073,1935,1327,483
7.590611927998907,1969,1371,528
7.593302224999206,2032,1410,539
7.595990355999675,2018,1419,539
7.5986766109999735,1984,1454,565
7.601362657998834,1958,1375,498
7.604049704999852,1941,1366,509
7.606736169000214,1934,1346,498
7.609425049999118,1931,1323,491
7.612117513999692,2022,1408,548
7.614807310999822,2032,1414,538
7.6174937750001845,2000,1438,558
7.620183363000251,1970,1409,529
7.622873577000064,1950,1369,502
7.625560165999559,1936,1363,507
7.628247130000091,1933,1325,479
7.6309353439992265,1989,1383,532
7.63362214100016,2039,1418,540
7.636312104999888,2023,1427,541
7.63899819299877,1985,1462,569
7.641686656999809,1959,1377,499
7.644376037998882,1942,1372,506
7.647064000999308,1935,1344,493
7.649751381999522,1930,1331,495
7.652441136999187,2032,1409,544
7.655128934999084,2038,1418,540
7.657816564998939,2003,1446,561
7.660505779000232,1969,1406,511
7.663192867999896,1949,1367,501
7.665878289999455,1938,1361,507
7.668565795000177,1936,1322,475
7.672140718999799,2000,1393,544
7.67484043299919,2035,1418,542
7.677531938999891,2003,1438,560
7.680222236000191,1970,1408,534
7.6829103250001936,1951,1367,502
7.685596997000175,1936,1361,505
7.688285959999121,1935,1326,479
7.690972923999652,1991,1387,528
7.693664721000459,2044,1420,542
7.696354601999701,2027,1428,544
7.699042481999641,1990,1462,564
7.7017291960000875,1963,1376,499
7.70441857699916,1943,1371,508
7.707109998998931,1936,1344,496
7.7098026709991245,1933,1339,505
7.712499301998832,2032,1408,550
7.715188431999195,2033,1418,539
7.717884478999622,2003,1447,564
7.720576359999541,1969,1403,525
7.723264947999269,1950,1370,504
7.7259520789993985,1937,1360,503
7.728640751000057,1933,1319,477
7.731331089999003,2014,1399,543
7.734017679000317,2055,1422,542
7.736706726000193,2026,1440,550
7.739397522998843,1987,1449,555
7.742087069998888,1958,1379,501
7.7447762840001815,1938,1373,510
7.747464830999888,1930,1339,490
7.750152712000272,1949,1360,511
7.75283996699909,2047,1409,543
7.755529097999897,2038,1424,545
7.758216477999667,2001,1456,565
7.760905274999459,1970,1402,511
7.763593821999166,1947,1374,506
7.766281619000438,1935,1360,503
7.768971166999108,1933,1313,473
7.771662089000529,2027,1408,546
7.774351635998755,2061,1423,535
7.777040015998864,2026,1444,556
7.779728729999988,1988,1440,543
7.782416611000372,1957,1377,503
7.7851403249987925,1941,1377,511
7.787841538000066,1926,1335,485
7.790554752000389,1975,1374,528
7.793244966000202,2058,1423,545
7.795934346999275,2038,1430,543
7.798620477000441,2000,1459,570
7.801309774000401,1968,1391,501
7.804002237999157,1947,1377,510
7.806691867999689,1935,1357,499
7.809379541000453,1929,1322,490
7.812068545999864,2038,1414,551
7.814757717998873,2061,1424,543
7.817446015000314,2019,1448,560
7.820135437999852,1984,1423,539
7.822824900998967,1955,1378,503
7.825511572998948,1940,1370,509
7.828197786999226,1932,1328,486
7.8308871680001175,1997,1386,531
7.833576422999613,2060,1423,547
7.83626709499913,2032,1431,553
7.838956767998752,1997,1467,572
7.841644398000426,1965,1380,505
7.844333736999033,1946,1375,508
7.847021450999819,1935,1347,496
7.849708372999885,1934,1335,498
7.852395252999486,2043,1413,549
7.855083966998791,2051,1411,535
7.857769930998984,2014,1452,564
7.860457769998902,1969,1411,528
7.863143524999032,1950,1375,503
7.865832655999839,1936,1362,507
7.868521910999334,1935,1323,479
7.871211166999274,2010,1395,541
7.873898464000376,2064,1423,545
7.876587385999301,2033,1437,551
7.879275724999388,1997,1459,560
7.8819852719989285,1959,1381,501
7.884713860999909,1942,1377,510
7.887442907998775,1934,1338,491
7.89016770499984,1949,1355,511
7.892895418999615,2063,1419,547
7.895655008000176,2058,1426,544
7.898405054998875,2014,1460,566
7.901172603000305,1970,1403,511
7.903902232999826,1950,1376,511
7.906629946999601,1936,1360,501
7.909355368999968,1931,1321,485
7.912085457999638,2043,1416,554
7.914814421999836,2064,1424,544
7.917540761000055,2023,1453,561
7.920270182999957,1986,1423,533
7.922999021999203,1957,1378,502
7.92572473600012,1939,1373,510
7.928451449999557,1935,1326,479
7.931179330000305,2013,1395,538
7.933908294000503,2073,1427,547
7.93663692500013,2043,1443,555
7.939365389000159,2000,1467,560
7.942090561000441,1967,1385,502
7.94481902500047,1941,1376,511
7.94754536399887,1934,1344,493
7.950270785999237,1954,1361,511
7.952998332999414,2065,1423,546
7.95572746399921,2061,1429,544
7.9585000530005345,2010,1448,554
7.96124114200029,1970,1392,503
7.963974063999558,1945,1366,497
7.966702277999502,1935,1349,493
7.969430367000314,1930,1314,479
7.972159455999645,2053,1412,541
7.974888460999864,2069,1424,534
7.977614549999998,2027,1452,557
7.980343305998758,1983,1422,529
7.983072394999908,1953,1376,496
7.985797567000191,1936,1369,503
7.988525364000452,1929,1339,486
7.991253369998958,1991,1398,543
7.993982083000446,2033,1420,542
7.996733171999949,2015,1430,548
7.999477719999049,1984,1452,560
8.002208724999946,1971,1375,498
8.004937646999679,1942,1371,509
8.0076646109992,1935,1339,493
8.010391492000053,1939,1359,511
8.01315558100032,1994,1400,538
8.015948962000039,1984,1397,534
8.018707258999711,1961,1434,561
8.02143626399993,1941,1363,497
8.024166477998733,1936,1359,502
8.026897900999757,1931,1339,493
8.02962632299932,1929,1315,487
8.032356244999391,2070,1414,551
8.035083708999082,2089,1427,541
8.037811255999259,2040,1458,561
8.040538637000282,1987,1424,529
8.043265934000374,1956,1385,506
8.045992188999662,1938,1372,509
8.048719152999183,1936,1328,481
8.051447825999276,2028,1405,544
8.054173247999643,2076,1430,546
8.056900337000116,2039,1451,553
8.05963038399932,1999,1454,551
8.062358473000131,1965,1388,507
8.065086687000075,1943,1381,511
8.06781431699892,1936,1341,492
8.070571530999587,1965,1371,527
8.073300661999383,2062,1424,551
8.076030166999772,2045,1427,545
8.07875913099997,2001,1462,573
8.081462095000461,1968,1389,509
8.08415155900002,1949,1375,509
8.086841022999579,1936,1353,497
8.089529237000534,1931,1328,491
8.092219408999881,2053,1414,549
8.094908705999842,2064,1424,539
8.097675211000023,2026,1454,560
8.100446591999571,1984,1424,533
8.104655933999311,1956,1378,511
8.10735452299923,1936,1344,495
8.110047611999107,1937,1346,510
8.112739575999512,2059,1415,547
8.115432955999495,2057,1424,539
8.118121085999519,2012,1455,563
8.120813300000009,1973,1407,526
8.123505763998764,1951,1374,503
8.126196395000079,1938,1361,505
8.128886149999744,1931,1316,474
8.13157436399888,2023,1407,547
8.134260785998777,2064,1424,543
8.136950582998907,2032,1442,557
8.139638796999861,1991,1450,555
8.142322760999377,1961,1382,501
8.145012515999042,1945,1377,511
8.147703147000357,1934,1339,491
8.150390026999958,1957,1361,522
8.153079323999918,2057,1419,549
8.155769537999731,2043,1425,544
8.158457002000432,2000,1457,567
8.161179798999001,1970,1397,509
8.163869137999427,1943,1374,509
8.16656047700053,1936,1360,502
8.169248898999285,1936,1315,483
8.171937778999563,2023,1409,553
8.17462790999889,2047,1421,543
8.177313373998913,2019,1441,551
8.180002338000122,1983,1429,538
8.18269042599968,1957,1377,503
8.185377514999345,1939,1365,509
8.188067146000321,1934,1331,485
8.190754483999626,1976,1378,529
8.193442615000095,2057,1423,548
8.196147745000417,2038,1427,545
8.198852043000443,2000,1462,571
8.201541505999558,1963,1388,510
8.204232969999794,1947,1375,510
8.20692018400041,1935,1353,499
8.209606397998868,1933,1328,495
8.212293778000458,2037,1411,546
8.214985033999255,2047,1421,541
8.217674456000168,2014,1446,557
8.220366170000489,1978,1415,530
8.223054549998778,1952,1372,505
8.225742471999183,1938,1365,509
8.228432644998975,1932,1323,476
8.231121650000205,1998,1388,533
8.233809363999171,2061,1423,544
8.236499243999788,2033,1434,545
8.239187875000425,1999,1466,568
8.241875255000195,1965,1381,497
8.244564552000156,1943,1374,511
8.247255266000138,1935,1344,495
8.249944187999063,1935,1342,499
8.252637444000356,2044,1411,549
8.25532474099964,2054,1423,542
8.258017996999115,2007,1441,556
8.260714210000515,1971,1395,511
8.263404174000243,1947,1361,494
8.2660938049994,1934,1358,495
8.268784644000334,1930,1311,464
8.271474940998814,2010,1395,535
8.274161737999748,2065,1419,531
8.27685053499954,2034,1437,544
8.279538957000113,1990,1453,549
8.282229378999546,1958,1377,492
8.28491909299919,1936,1371,499
8.287607973999911,1931,1340,479
8.290299062000486,1946,1357,499
8.292990067999199,2067,1421,540
8.295681739999054,2063,1427,534
8.298389911999038,2016,1456,560
8.301095126000291,1973,1405,510
8.303791340000316,1945,1373,499
8.306514762000006,1930,1358,496
8.30920639299984,1925,1309,464
8.311894147998828,2038,1410,544
8.31458565399953,2077,1425,541
8.317275908999363,2032,1447,555
8.31996495599924,1989,1439,535
8.322656502999962,1955,1379,495
8.325343884000176,1936,1373,501
8.328034763999312,1927,1330,477
8.33072331099902,1974,1373,511
8.333410359000482,2065,1424,542
8.336098738998771,2047,1429,535
8.338787536000382,2002,1465,561
8.341474667000512,1965,1389,498
8.344164629999796,1940,1373,496
8.346853469000052,1927,1350,491
8.349542390998977,1911,1310,467
8.35223564700027,2053,1413,541
8.354932901998836,2066,1424,531
8.35762586599958,2028,1451,555
8.36031808000007,1982,1423,528
8.363007126999946,1949,1375,495
8.365695466000034,1934,1365,498
8.368384262999825,1925,1321,473
8.371072018999257,2000,1385,525
8.373758316000021,2077,1426,539
8.37644648800051,2044,1436,542
8.379137326999626,2000,1471,567
8.381827623999925,1965,1383,496
8.384518003998892,1936,1374,502
8.387206884999614,1926,1344,487
8.389893014998961,1923,1329,494
8.392582686999958,2062,1413,542
8.395269859998734,2065,1424,533
8.397975656998824,2022,1455,555
8.400677161998829,1979,1413,511
8.403368458999466,1945,1371,496
8.406057214999237,1929,1361,496
8.408746053999494,1921,1317,466
8.411433309000131,2017,1394,534
8.414119480999943,2071,1424,535
8.416807736999544,2037,1439,541
8.41949515899978,1993,1459,551
8.422181830999762,1955,1379,496
8.424870336999447,1934,1371,498
8.427557592000085,1924,1337,482
8.430245888999707,1936,1350,501
8.43293418599933,2064,1418,541
8.4356229419991,2064,1425,534
8.438308030999906,2015,1456,554
8.440996993998851,1970,1400,511
8.443687332999616,1941,1373,496
8.446376088999386,1926,1355,495
8.449063844000193,1920,1310,464
8.45175297499918,2029,1405,540
8.45443902199986,2065,1423,535
8.457170194000355,2031,1443,546
8.459860324999681,1984,1442,541
8.462551079999685,1949,1376,495
8.46523850199992,1931,1369,505
8.467927798999881,1921,1329,477
8.470617388000392,1963,1362,511
8.473306268999295,2064,1423,534
8.475994690999869,2053,1429,534
8.478682904999005,2004,1459,561
8.481368577000467,1965,1390,499
8.484056290999433,1936,1371,498
8.48675500399986,1925,1352,493
8.489444134998848,1917,1311,470
8.492132973999105,2035,1408,541
8.494820728999912,2064,1422,535
8.497521735000191,2023,1442,551
8.500219614999878,1978,1423,528
8.50291082900003,1945,1370,493
8.50560091799889,1927,1363,496
8.508292798000184,1920,1322,472
8.51098071999877,1979,1376,523
8.513666933999048,2064,1419,532
8.516355398000087,2039,1426,536
8.51904398700026,1995,1461,562
8.521732576000431,1955,1377,496
8.524422663998848,1934,1365,498
8.527110586999697,1920,1342,486
8.529797674998918,1919,1323,483
8.532486013999005,2052,1409,542
8.535174644999643,2064,1420,531
8.537865733998842,2016,1449,553
8.540556363999713,1973,1395,511
8.543245660999673,1939,1358,492
8.545933041999888,1926,1353,495
8.548621588999595,1918,1308,464
8.551309885999217,1999,1383,527
8.553997390999939,2062,1415,533
8.556685522000407,2031,1427,538
8.55937352699948,1989,1455,558
8.56206065799961,1950,1372,491
8.564755246999994,1930,1365,499
8.567450876998919,1919,1335,480
8.57014471599905,1923,1337,493
8.572837345998778,2060,1410,535
8.575526643999183,2063,1421,534
8.57821360699927,2015,1463,566
8.580903570998998,1971,1410,527
8.583590492999065,1943,1377,506
8.586277915999744,1927,1360,505
8.588967003999642,1920,1315,475
8.591653677000068,2016,1404,543
8.594340764999288,2064,1423,540
8.597040728998763,2028,1440,555
8.599730150999676,1984,1451,554
8.602417322999827,1951,1374,501
8.605142161999538,1935,1371,507
8.607830875998843,1921,1331,484
8.610542881999208,1943,1357,511
8.613231719999021,2045,1414,546
8.615917642999193,2036,1422,540
8.618606105999788,1997,1455,563
8.62129519500013,1964,1392,509
8.623982076000175,1937,1367,507
8.626669330998993,1930,1353,496
8.629355294999186,1926,1306,475
8.632044091998978,1971,1392,540
8.634734097999171,1985,1392,530
8.637421477998942,1968,1412,545
8.640109358999325,1940,1403,533
8.642796697000449,1920,1350,496
8.645483452999542,1916,1348,499
8.648171916998763,1915,1310,479
8.650858297000013,1977,1363,528
8.653544843999043,2082,1419,547
8.656231183000273,2064,1427,545
8.658919022000191,2013,1465,571
8.661605151999538,1968,1391,506
8.6642924079988,1939,1375,507
8.666982079999798,1929,1350,496
8.669670793999103,1921,1322,491
8.672357882998767,2062,1417,551
8.675046095999278,2079,1427,543
8.677733934999196,2035,1456,560
8.680425606999052,1988,1425,535
8.683113404998949,1951,1379,507
8.685799909999332,1935,1371,509
8.68848774899925,1921,1325,482
8.691175046000353,1988,1384,528
8.6938611759997,2055,1423,542
8.696550931999809,2032,1431,547
8.699242186999982,1991,1461,571
8.7019300259999,1957,1377,499
8.704617240000516,1935,1371,509
8.707310079000308,1925,1343,490
8.709997418000057,1923,1331,499
8.712683839999954,2046,1412,547
8.71537046999947,2056,1415,539
8.718060975999833,2015,1451,560
8.720747522998863,1972,1409,526
8.723435777999839,1947,1373,500
8.726120700999672,1930,1361,503
8.728809330999866,1925,1317,480
8.731499628000165,2002,1392,541
8.734188717000507,2058,1421,542
8.736878096999135,2025,1431,546
8.73956526999973,1986,1453,559
8.74225235799895,1951,1373,496
8.744940071999736,1936,1367,507
8.747628868999527,1924,1339,489
8.75031449999915,1936,1347,502
8.753002879999258,2043,1408,542
8.755689510999218,2038,1415,537
8.758374765999179,2003,1445,560
8.761061813000197,1968,1394,511
8.763751569000306,1941,1366,505
8.766439490998891,1927,1357,505
8.769168622000507,1923,1311,473
8.771905710998908,2016,1405,543
8.77459484099927,2045,1417,537
8.777283929999612,2017,1437,547
8.779971809999552,1979,1437,542
8.782659815999068,1949,1372,496
8.785345779999261,1933,1367,505
8.788033284999983,1929,1331,486
8.790722956999161,1957,1363,527
8.79341271299927,2034,1410,544
8.796104302000458,2025,1419,542
8.79879314000027,1991,1453,566
8.801481479000358,1957,1383,503
8.804167401000086,1939,1365,506
8.806853197998862,1930,1349,497
8.80954053700043,1921,1313,482
8.812228333999883,2022,1405,547
8.814916797999103,2038,1415,541
8.817602844999783,2005,1439,557
8.820292808999511,1973,1421,532
8.822981105999133,1946,1369,502
8.825670987000194,1933,1363,507
8.828362533999098,1927,1325,480
8.831052706000264,1979,1375,528
8.833738461999019,2041,1411,543
8.83642617499936,2023,1423,543
8.839113263999025,1987,1456,566
8.841799144998731,1954,1377,502
8.844487983000363,1936,1364,505
8.84717519699916,1931,1342,496
8.849860119000368,1923,1324,493
8.852548332999504,2031,1408,549
8.85523554700012,2039,1411,537
8.857924551999531,2005,1443,557
8.860614224999154,1968,1408,528
8.863303854999685,1946,1367,496
8.865990860998863,1930,1361,505
8.868679823999628,1926,1318,480
8.871368037998764,1994,1379,537
8.874054001998957,2041,1416,544
8.876743673999954,2025,1424,545
8.879430179998963,1984,1456,563
8.88211610200051,1955,1374,499
8.884826731999055,1936,1365,509
8.887553612999909,1927,1341,493
8.890279702000043,1930,1342,503
8.893005873998845,2039,1408,545
8.895733962999657,2036,1417,537
8.898458968000341,2000,1446,561
8.901236431998768,1965,1395,525
8.903965020999749,1943,1366,507
8.906690859999799,1930,1354,501
8.909415365998939,1924,1307,471
8.912141787999644,2028,1408,547
8.914866959999927,2058,1420,542
8.917591674000505,2020,1440,558
8.920319845999984,1984,1425,541
8.923050309998871,1952,1374,502
8.92577744099981,1936,1366,509
8.928505071000473,1926,1328,481
8.931232326998725,1987,1383,531
8.93395874899943,2058,1423,545
8.93668862999948,2032,1431,552
8.93942592699932,1996,1466,567
8.942150348999348,1957,1375,496
8.944877395999356,1937,1370,509
8.947603319000336,1934,1341,493
8.950327741000365,1935,1346,506
8.953054288000203,2057,1417,545
8.955784460000359,2047,1422,538
8.958549132999906,2002,1454,561
8.961277637999956,1969,1398,511
8.964006852000239,1962,1370,506
8.96673360800014,1935,1359,501
8.969458945999577,1931,1310,477
8.972185409998929,2032,1409,551
8.974912498999402,2059,1423,544
8.977635670999007,2021,1443,554
8.980362594000326,1983,1425,528
8.983089432998895,1950,1377,503
8.985815521000404,1936,1372,511
8.988543859999481,1930,1328,483
8.991271365999637,1995,1383,537
8.993995787999665,2061,1423,547
8.99672271000054,2033,1433,549
8.999450383000294,1995,1466,573
9.002176554999096,1959,1379,502
9.004902269000013,1939,1374,510
9.007628440998815,1933,1344,495
9.010353780000514,1936,1344,507
9.01307886900031,2057,1415,547
9.015804458000275,2053,1423,542
9.018624213000294,2007,1456,564
9.021383801999036,1971,1402,524
9.024115849999362,1941,1370,507
9.026844354999412,1934,1358,500
9.029570610999144,1930,1313,482
9.032298907999575,2035,1409,547
9.035027496998737,2064,1424,542
9.037754335999125,2023,1446,555
9.040482758000508,1982,1424,534
9.043211554999289,1950,1377,505
9.045936476999486,1936,1369,509
9.04866527500053,1929,1327,481
9.051393362999079,2000,1389,529
9.054120951999721,2066,1424,543
9.05685020800047,2039,1437,548
9.059579587999906,1999,1468,567
9.062305469000421,1963,1381,502
9.065033890999985,1938,1375,511
9.06776352199995,1933,1343,491
9.070527818999835,1943,1353,511
9.073259615999632,2059,1415,545
9.07599049700002,2047,1424,541
9.078717086000324,2004,1456,566
9.081443340999613,1969,1394,511
9.084169388999726,1942,1363,499
9.086857935999433,1936,1358,500
9.089544690999901,1931,1315,482
9.092233072000454,2034,1410,549
9.094920035000541,2062,1424,543
9.097605790999296,2021,1444,557
9.100294296000357,1984,1427,534
9.102982551999958,1952,1377,502
9.105714848999924,1936,1373,509
9.108430562999274,1929,1329,485
9.111119151999446,1991,1386,537
9.113806281999132,2063,1424,551
9.116492953999114,2035,1429,550
9.119180376999793,2000,1466,573
9.121869049000452,1967,1386,506
9.124558096000328,1940,1375,511
9.127247893000458,1935,1351,496
9.129935439999826,1927,1328,496
9.132624071000464,2044,1415,555
9.135312075999536,2059,1422,539
9.137999497999772,2013,1449,559
9.140687503999288,1981,1418,529
9.143377008998868,1950,1369,506
9.1460639729994,1936,1365,507
9.148752478999086,1933,1322,480
9.151444441999047,2002,1390,539
9.154133488998923,2063,1423,547
9.156822869999814,2035,1436,548
9.159511416999521,1994,1466,561
9.162197797999397,1961,1379,499
9.164899428000354,1941,1375,511
9.167590349999955,1933,1344,495
9.170277813998837,1936,1345,507
9.172968277998734,2055,1417,551
9.175656032999541,2055,1423,542
9.178342789000453,2011,1454,561
9.181030960999124,1977,1406,511
9.183721383000375,1951,1374,503
9.186410763999447,1934,1359,496
9.18915114399897,1932,1323,477
9.191845315999672,2019,1405,545
9.194562696999128,2061,1424,547
9.197253326999999,2031,1441,558
9.199940373999198,1989,1450,554
9.202630087998841,1953,1377,500
9.205318635000367,1936,1373,511
9.208005640999545,1930,1338,491
9.210693105000246,1959,1362,524
9.21338281899989,2063,1419,546
9.216070656999364,2047,1426,545
9.218758412998795,2006,1457,571
9.221446751998883,1963,1399,511
9.224136839999119,1943,1374,506
9.22683026300001,1936,1359,501
9.229517976000352,1931,1313,482
9.232205524000165,2031,1410,554
9.234892903999935,2061,1422,545
9.23757899299926,2024,1445,560
9.240267748000406,1984,1431,536
9.24295646199971,1954,1377,505
9.245645300999968,1939,1375,511
9.248336972999823,1935,1333,484
9.25102714499917,1975,1379,529
9.253712484000062,2071,1424,546
9.256400655998732,2054,1431,547
9.259089662000406,2006,1466,563
9.261777458999859,1969,1392,509
9.264466839000306,1941,1378,509
9.267156760999569,1935,1355,499
9.269844016998832,1935,1328,493
9.272534396999617,2010,1401,538
9.275221070000043,2032,1415,540
9.277909200000067,2001,1440,557
9.280599080999309,1975,1415,528
9.283287127998847,1951,1371,502
9.286000632999276,1939,1366,507
9.288775888999226,1935,1321,473
9.291551352998795,1952,1376,530
9.294319774999167,1965,1392,531
9.297075114000108,1951,1398,539
9.2998092859998,1936,1420,545
9.302574958999685,1927,1346,486
9.3053035060002,1930,1348,498
9.308034886000314,1924,1319,479
9.310763141998905,1959,1347,506
9.313489772999674,2087,1421,544
9.316216610999618,2074,1429,542
9.31894253399878,2021,1467,570
9.321668955999485,1975,1397,511
9.324399585999345,1949,1378,507
9.327128966999226,1937,1359,498
9.329854431000058,1933,1326,486
9.332583769999474,2064,1422,555
9.335310774999016,2081,1433,548
9.338038613999743,2035,1458,562
9.340770119999434,1991,1428,535
9.343498959000499,1958,1383,505
9.346224630999131,1937,1374,509
9.348952844999076,1933,1328,483
9.351683142000184,2011,1400,543
9.354408397999578,2063,1424,541
9.357180236998829,2032,1440,550
9.359913033998964,1991,1456,557
9.362639122999099,1962,1377,499
9.365367002999847,1941,1373,505
9.368097550999664,1934,1337,487
9.370825388999947,1963,1361,511
9.373554269999659,2060,1419,548
9.376283608999074,2039,1424,543
9.379012905999843,2001,1458,567
9.38173961999928,1959,1392,507
9.384470250999584,1943,1371,510
9.387197297999592,1936,1355,496
9.389922262000255,1931,1326,486
9.392649059000178,2038,1410,549
9.395375938998768,2055,1422,542
9.398101237000446,2015,1447,560
9.400830325999777,1975,1413,530
9.403559080999912,1950,1372,503
9.406288295000195,1936,1364,506
9.409019800999886,1934,1323,478
9.411747305999597,2001,1392,543
9.414506895000159,2051,1419,541
9.417235816999892,2022,1433,549
9.419962239999222,1985,1447,552
9.422687202999441,1955,1374,499
9.42541300099947,1938,1371,511
9.428138465000302,1932,1333,486
9.430866386999696,1960,1361,511
9.433590892000211,2030,1403,528
9.436318772999584,2033,1424,539
9.439046236999275,1996,1456,566
9.441770908999388,1966,1390,509
9.444497081000009,1936,1373,503
9.44722325299881,1933,1351,502
9.449956758999178,1929,1326,490
9.452685555999778,2029,1409,546
9.455415644999448,2032,1415,541
9.458140900998842,2002,1441,560
9.460875364999083,1973,1408,528
9.463602620000529,1947,1367,503
9.466328126000008,1936,1362,505
9.469056964999254,1930,1321,477
9.471784387000298,2000,1392,542
9.474544933998914,2032,1415,539
9.477274730999852,2019,1426,546
9.480005403998803,1981,1440,549
9.482738075999805,1951,1370,496
9.485677914999542,1938,1363,506
9.488405961999888,1934,1334,487
9.49110150999877,1971,1370,528
9.493793097999514,2032,1401,542
9.496484270999645,2019,1420,539
9.499187776000326,1990,1452,568
9.501887532000183,1958,1376,502
9.504584578999129,1939,1366,508
9.507296751000467,1929,1344,496
9.510005964999436,1932,1327,491
9.512703012000202,2031,1408,549
9.515396808999867,2039,1414,541
9.518089647999659,2010,1441,560
9.520807611999771,1973,1412,529
9.523506784000347,1947,1371,502
9.526195331000054,1937,1365,507
9.528885752999486,1935,1323,478
9.531574258999171,2000,1391,535
9.534260847000041,2045,1417,544
9.536949727998945,2029,1428,548
9.539637399999265,1990,1457,563
9.542324197000198,1962,1377,497
9.545012618998953,1943,1371,508
9.547703917000035,1935,1344,491
9.551178964999053,1936,1343,507
9.553873845999988,2033,1412,549
9.556566142999145,2026,1415,544
9.559256565000396,1994,1453,562
9.561943570999574,1962,1377,499
9.564643617999536,1941,1367,506
9.567333707000216,1931,1345,496
9.570022169998992,1930,1328,495
9.572711717999482,2039,1411,548
9.575401264999527,2053,1415,535
9.578091477998896,2015,1447,560
9.580781609000041,1979,1415,529
9.58347048900032,1949,1374,501
9.58615874499992,1937,1361,506
9.588849458999903,1934,1325,480
9.591538548000244,2000,1390,538
9.594225427999845,2053,1419,544
9.596913391998896,2029,1431,550
9.599600605999512,1990,1461,566
9.602287194000382,1959,1377,498
9.604976157999772,1939,1373,509
9.607664954999564,1936,1345,494
9.610356043998763,1936,1342,502
9.613045132999105,2039,1413,546
9.615733847000229,2044,1419,535
9.61842181099928,2006,1450,562
9.62114339999971,1974,1407,526
9.623831654998867,1947,1373,506
9.62654599400048,1936,1360,508
9.629235582999172,1930,1319,475
9.631923212999027,2013,1403,544
9.634613301999707,2047,1421,541
9.637299723999604,2023,1434,546
9.639989645998867,1985,1448,550
9.64268281799923,1958,1375,499
9.645372156999656,1940,1370,509
9.648060329000145,1936,1338,493
9.650748584999747,1957,1362,511
9.653435506999813,2046,1419,547
9.656122553999012,2041,1424,543
9.658810642999015,2005,1456,564
9.661497064998912,1967,1398,511
9.664184278999528,1948,1373,511
9.666871743000229,1937,1359,504
9.66955758199947,1935,1315,478
9.672246128999177,2026,1409,550
9.674936301000344,2057,1421,543
9.677624931000537,2021,1441,555
9.680313978000413,1984,1435,535
9.683000609000374,1957,1377,499
9.686012656999083,1940,1375,507
9.68876057899979,1936,1332,489
9.691495543000201,1995,1385,529
9.694225506998919,2063,1421,541
9.696955096000238,2033,1433,545
9.699708559999635,1996,1466,564
9.702503815000455,1966,1377,500
9.705249863000063,1943,1374,507
9.70799028500005,1934,1342,491
9.710741914999744,1949,1359,511
9.713478046000091,2060,1415,545
9.716210676999253,2045,1424,539
9.71895826599939,2002,1457,562
9.721696353999505,1969,1395,503
9.72443052699964,1947,1370,506
9.727167865999945,1936,1355,497
9.729900745998748,1934,1324,487
9.732638002000385,2032,1411,551
9.735375173999273,2046,1421,538
9.73811180499979,2012,1446,558
9.740855059999376,1978,1415,532
9.743595107000147,1941,1361,496
9.746327363000091,1937,1366,510
9.749063909999677,1930,1324,479
9.751799748999474,2006,1395,540
9.754570754999804,2062,1424,541
9.757307759999094,2032,1437,548
9.760046265999335,1991,1451,554
9.762784897000529,1963,1378,499
9.765518819000135,1938,1376,509
9.76825182399989,1934,1334,489
9.770984413000406,1967,1366,511
9.773716710000372,2055,1421,545
9.776446923999174,2041,1425,544
9.779180472000007,2000,1460,567
9.781912561000354,1968,1390,503
9.78465123299975,1946,1375,507
9.787389780000012,1936,1350,496
9.790124994000507,1934,1328,495
9.79286137499912,2032,1413,547
9.795596463000038,2043,1418,542
9.79832938599975,2010,1447,560
9.801064682998913,1971,1404,523
9.803802647000339,1947,1372,507
9.806628443999216,1936,1364,507
9.809380700000474,1936,1321,480
9.81211803899896,2017,1403,549
9.814851793998969,2058,1419,539
9.817584258000352,2019,1438,555
9.820317513998816,1982,1439,545
9.823050478000368,1957,1377,503
9.825786149998748,1937,1372,511
9.828522947000238,1935,1332,486
9.83125874399957,1984,1380,531
9.833994958000403,2054,1421,545
9.836734963999334,2032,1428,544
9.839472052999554,1995,1463,570
9.842204933000176,1965,1383,503
9.844941855999423,1943,1376,510
9.847678778000045,1936,1347,496
9.85040699199999,1936,1342,507
9.85319162199994,2054,1414,548
9.855932503000076,2055,1422,542
9.858667049998985,2013,1456,562
9.861402222999459,1975,1403,511
9.864141560999997,1953,1375,506
9.8668825249988,1938,1360,504
9.869617655998809,1936,1315,473
9.872354953000468,2028,1413,546
9.875093083999673,2061,1424,543
9.877825505998771,2026,1446,558
9.880563177999647,1986,1428,539
9.883299350000016,1955,1378,503
9.886430231999839,1941,1371,511
9.889174945999912,1934,1331,488
9.891881617999388,2015,1396,545
9.894574539999667,2062,1423,545
9.897265920999416,2033,1440,553
9.899957925999843,1993,1455,560
9.90266572299879,1961,1374,496
9.905367436998858,1942,1377,511
9.908059900999433,1936,1342,493
9.910759947999395,1952,1361,511
9.913458244998765,2058,1421,545
9.91615345900027,2047,1425,543
9.91884617299911,2006,1458,565
9.921538344999135,1972,1403,511
9.92423293399952,1950,1378,510
9.926925648000179,1938,1360,499
9.92961790299887,1936,1313,479
9.932315408999784,2032,1414,554
9.935009913999238,2062,1424,546
9.937701544999072,2027,1446,559
9.940397717000451,1991,1434,541
9.943092346999038,1960,1378,503
9.945784644000014,1945,1376,510
9.948479399999997,1936,1337,490
9.951173280000148,1973,1377,527
9.953864660999898,2025,1413,540
9.956558165999013,2015,1419,542
9.959253297000032,1986,1454,566
9.961947177000184,1963,1379,503
9.964644599998792,1947,1371,511
9.967338521999409,1939,1350,496
9.970029026999327,1933,1327,493
9.972725282999818,1979,1393,541
9.97542078799961,1979,1392,529
9.978111209999042,1956,1414,549
9.980805798999427,1941,1391,526
9.983499721000044,1937,1353,496
9.986190518999138,1934,1352,501
9.988884981999945,1931,1313,477
9.991579487999843,2025,1389,535
9.994273992999297,2096,1428,550
9.996970248999787,2071,1446,553
9.999665588000425,2015,1477,572
10.002358550998906,1978,1389,502
10.005054556999312,1951,1377,508
10.007750561999273,1938,1356,496
10.010441942999023,1935,1351,511
10.013166114998967,2064,1413,551
10.015862411999478,2064,1428,545
10.018558458999905,2023,1461,566
10.021294547999787,1981,1411,527
10.024026303999563,1955,1382,506
10.026720142999693,1940,1367,503
10.0294119400005,1933,1319,477
10.032109694999235,2018,1408,544
10.034804408998752,2055,1423,544
10.037495081000088,2020,1441,555
