time,y1,y2,y3
0.006093136998970294,1920,912,448
0.008844267998938449,1766,1023,419
0.011577314999158261,1762,1083,410
0.014307652998468257,1812,1174,448
0.017043908999767154,1863,1179,420
0.019772580999415368,1904,1206,432
0.02250283600005787,1922,1237,445
0.0252321749994735,1931,1228,434
0.027951971998845693,1787,1280,487
0.03068885199900251,1747,1262,471
0.033422023998355144,1793,1282,490
0.03615248799906112,1842,1284,471
0.038883492999957525,1890,1263,453
0.04161208099867508,1917,1286,464
0.044373253998855944,1927,1267,451
0.04710246699869458,1840,1296,486
0.049832847998914076,1747,1285,480
0.05256231099883735,1776,1281,485
0.05528923299971211,1834,1325,499
0.05801694699948712,1876,1264,451
0.06074286900002335,1909,1286,466
0.06346799899984035,1922,1279,461
0.0662018379989604,1911,1297,479
0.06898605199967278,1755,1296,493
0.07173443200008478,1758,1278,480
0.07447022899941658,1812,1315,507
0.07720010899902263,1861,1273,459
0.07992398899841646,1903,1281,464
0.08264728599897353,1919,1289,463
0.08537591699860059,1923,1269,453
0.08809992199894623,1779,1309,496
0.09085163599957014,1747,1278,479
0.0935969739985012,1793,1297,496
0.09637552200001664,1846,1291,479
0.09912877699935052,1890,1267,457
0.10186186600003566,1915,1291,469
0.10458791299970471,1921,1266,448
0.10731225099880248,1819,1301,495
0.11003950699887355,1747,1280,481
0.11276513699885982,1778,1287,487
0.11549080899931141,1836,1317,496
0.11822081399986928,1878,1262,448
0.12094744399837509,1905,1287,465
0.1236717409992707,1921,1278,455
0.12639812199995504,1892,1296,480
0.12912520999998378,1745,1296,491
0.13184984100007568,1762,1279,480
0.13457522099997732,1815,1315,505
0.13730601799943543,1865,1269,458
0.14003406499978155,1900,1279,465
0.142762153998774,1918,1286,464
0.1454894089984009,1923,1273,461
0.14821395599938114,1776,1307,496
0.15099091999945813,1753,1279,479
0.15372088299955067,1799,1302,497
0.15644692999921972,1851,1287,470
0.15917126899876166,1888,1271,453
0.16189902399855782,1913,1291,465
0.16462652999871352,1921,1266,448
0.1673549520000961,1823,1306,495
0.17008395699849643,1759,1282,482
0.17280921199926524,1787,1290,490
0.1755346339996322,1840,1319,496
0.17826276399864582,1878,1264,449
0.18152164599996468,1906,1292,464
0.18421877599939762,1920,1278,459
0.1869376979993831,1847,1296,484
0.18964016199970501,1762,1285,486
0.19236833399918396,1779,1280,486
0.19505954699889116,1829,1328,511
0.19775063599990972,1872,1264,449
0.20044914099889866,1904,1283,465
0.20313847999932477,1917,1280,463
0.20582581799862965,1921,1291,474
0.2085128229991824,1775,1303,496
0.21119824499874085,1763,1281,480
0.21388458399997035,1806,1309,503
0.21658754799864255,1854,1283,465
0.21927526099898387,1893,1274,462
0.2219643909993465,1911,1291,467
0.22465297999951872,1920,1265,450
0.22733998500007147,1812,1305,496
0.23002878199986299,1749,1281,482
0.2327217459987878,1779,1287,487
0.23541100100010226,1828,1319,499
0.23810071399930166,1872,1262,452
0.24078788599945256,1904,1286,467
0.24347418299839774,1919,1279,460
0.24616323000009288,1899,1295,479
0.2488529849997576,1744,1292,489
0.25153799100007745,1744,1269,477
0.25422332899870526,1801,1305,500
0.25691083399942727,1852,1271,456
0.25960075599869015,1891,1271,459
0.26228880300004676,1910,1284,464
0.26498005899884447,1920,1259,448
0.2676693549983611,1782,1299,496
0.27035894399887184,1732,1269,475
0.27304815799834614,1773,1282,486
0.2757354129989835,1828,1296,483
0.27842316799979017,1872,1263,454
0.28111158999854524,1904,1286,468
0.2837991369997326,1915,1269,453
0.2864872669997567,1866,1295,483
0.2891746469995269,1735,1282,485
0.2918747359999543,1744,1265,475
0.29457394999917597,1803,1307,502
0.2972654959994543,1855,1264,454
0.29995870999846375,1892,1271,461
0.3026592989990604,1909,1280,463
0.3053505119987676,1920,1265,455
0.30803751699932036,1765,1296,495
0.31072735599991574,1728,1264,476
0.31341398599943204,1776,1284,490
0.3161003659988637,1829,1280,470
0.318789579998338,1877,1264,454
0.32148012699872197,1904,1285,470
0.3241675909994228,1916,1267,449
0.3268573869991087,1831,1293,483
0.3295488509993447,1723,1272,477
0.3322378979992209,1745,1264,477
0.3349681119998422,1806,1311,505
0.3376585749992955,1858,1255,448
0.3403457049989811,1895,1278,464
0.34303171099963947,1911,1278,461
0.3457206329985638,1920,1281,469
0.3484081379992858,1745,1294,492
0.35109351799837896,1731,1263,470
0.3537803149993124,1781,1290,495
0.35647715399863955,1838,1274,465
0.35916828399967926,1881,1264,459
0.3618578309997247,1905,1285,466
0.3645475859993894,1918,1263,449
0.3672359239990328,1801,1294,487
0.3699243880000722,1723,1267,471
0.3726125180000963,1752,1266,481
0.3753016899991053,1812,1306,496
0.37799073699898145,1863,1250,447
0.3806777839999995,1900,1280,464
0.383364288998564,1914,1269,454
0.386052085999836,1904,1287,473
0.38873934099865437,1739,1283,487
0.3914433879999706,1735,1262,475
0.39414672699967923,1788,1296,497
0.3968394409985194,1842,1264,462
0.3995260289993894,1886,1266,464
0.4022372429990355,1905,1282,467
0.404931248000139,1915,1259,442
0.40761354499954905,1783,1296,494
0.4103065079998487,1728,1264,476
0.4129971389993443,1769,1275,486
0.41568572699907236,1826,1296,487
0.41837523199865245,1871,1259,451
0.4210644039994804,1895,1283,468
0.42375290999916615,1914,1269,451
0.4264450399987254,1869,1290,475
0.42913500299982843,1735,1283,481
0.4318220499990275,1744,1264,474
0.43451143099991896,1801,1306,499
0.4371996859990759,1854,1264,455
0.43988606599850755,1890,1273,463
0.44257302999903914,1907,1280,463
0.4452601599987247,1918,1263,450
0.44794570699923497,1767,1296,493
0.4506362119991536,1729,1264,473
0.4533255509995797,1776,1283,486
0.4560148059990752,1831,1282,473
0.4587068939999881,1874,1264,455
0.4613939829996525,1904,1286,470
0.4640805299986823,1914,1267,451
0.46676699299860047,1839,1295,486
0.4694548739989841,1733,1273,479
0.4721406289991137,1750,1264,476
0.4748303839987784,1808,1311,503
0.47751822299869673,1855,1258,450
0.48020276999886846,1894,1279,464
0.48289139999906183,1909,1279,462
0.48558007199972053,1919,1277,466
0.48829199399915524,1749,1296,487
0.4909949159991811,1728,1262,471
0.49369579599988356,1778,1289,495
0.49638755099840637,1837,1276,465
0.4990747649990226,1874,1264,457
0.5017698529991321,1904,1283,467
0.5044586499989236,1919,1264,448
0.5071470719994977,1790,1283,484
0.5098357019996911,1694,1258,469
0.512522707998869,1731,1255,475
0.5152106299992738,1798,1297,496
0.5178995930000383,1856,1245,446
0.5205926399994496,1898,1274,464
0.5232828119987971,1914,1270,453
0.5259731919995829,1904,1281,467
0.5286631969993323,1661,1261,476
0.5313505779995467,1653,1225,462
0.5340402909987461,1727,1255,485
0.5367282959996373,1805,1233,449
0.5394155099984346,1863,1239,450
0.5421038899985433,1898,1264,461
0.5447918119989481,1914,1242,439
0.5474795669997548,1807,1291,488
0.5501705309998215,1757,1268,473
0.5528614949998882,1787,1281,483
0.5555517919983686,1836,1307,487
0.5582405879995349,1872,1264,452
0.5609285099999397,1903,1288,464
0.563616640998589,1914,1274,453
0.5663041869993322,1882,1294,478
0.5689914429985947,1741,1283,482
0.5716774479988089,1744,1264,474
0.5743676619986218,1802,1303,498
0.5770567079998727,1841,1266,464
0.5797426299996005,1888,1270,464
0.5824301359989477,1907,1281,466
0.5851190159992257,1917,1255,449
0.5878066039986152,1760,1287,496
0.5904953599983855,1712,1259,474
0.5931989069995325,1758,1273,488
0.5959106199989037,1818,1281,475
0.5986254589988675,1871,1264,464
0.6013209220000135,1904,1296,480
0.6040149279997422,1918,1271,464
0.606712183000127,1847,1297,496
0.6094017709983746,1738,1282,494
0.6120851519990538,1755,1269,490
0.6147760320000089,1812,1314,511
0.6174677039998642,1857,1263,463
0.6201555009993172,1899,1281,478
0.6228435889988759,1910,1283,472
0.625533385999006,1920,1278,473
0.6282195999992837,1751,1296,496
0.6309406879991002,1723,1264,477
0.6336318189987651,1776,1289,498
0.6363514069998928,1833,1280,480
0.6390406629998324,1882,1264,464
0.6417290429999412,1904,1290,477
0.6444170479990134,1918,1265,459
0.6471074279997993,1811,1294,495
0.6497968919993582,1725,1267,486
0.6524861049983883,1754,1267,491
0.655172026999935,1809,1313,511
0.657859823999388,1862,1258,460
0.6605485789987142,1903,1284,476
0.6632342099983362,1914,1280,468
0.6659219229986775,1917,1291,482
0.6686093869993783,1731,1287,496
0.6712980169995717,1724,1262,481
0.6739843559989822,1781,1287,503
0.6766724029985198,1840,1267,470
0.6793619909985864,1886,1270,466
0.6820520799992664,1909,1286,476
0.6847410430000309,1919,1258,447
0.6874284239984263,1776,1295,499
0.6901168869990215,1705,1263,482
0.6928208509998512,1744,1264,486
0.6955195639984595,1812,1296,496
0.698210945000028,1865,1253,461
0.7009004909996293,1903,1284,475
0.703596497000035,1919,1273,467
0.7062855439999112,1878,1292,489
0.7089746739984548,1724,1279,493
0.7116593459995784,1729,1260,480
0.7143480589984392,1786,1297,507
0.7170393979995424,1844,1264,466
0.7197278610001376,1891,1270,473
0.7224171170000773,1915,1283,475
0.7251061639999534,1922,1261,455
0.7277926269998716,1754,1293,498
0.7304814660001284,1703,1255,479
0.7331735539992223,1755,1271,495
0.7358612259995425,1821,1283,488
0.7385505229995033,1873,1259,461
0.7412402369991469,1905,1285,478
0.7439296169995941,1920,1271,459
0.7466209559988783,1851,1296,487
0.7493091689993889,1725,1279,485
0.7519965909996245,1744,1261,481
0.7546852629984642,1802,1307,511
0.7573726430000534,1857,1264,461
0.7600611069992738,1890,1278,470
0.762750486999721,1915,1285,471
0.7654377009985183,1923,1275,465
0.7681241639984364,1750,1295,499
0.7708142529991164,1722,1263,478
0.7735030909989291,1774,1285,498
0.7761930969991226,1830,1280,479
0.7788838929991471,1879,1264,463
0.7815730239999539,1909,1288,479
0.7842589459996816,1920,1271,463
0.7869767009997304,1825,1291,483
0.7896656229986547,1728,1273,490
0.7923685030000343,1753,1269,489
0.7950675079991925,1811,1315,522
0.7977603049985191,1867,1262,456
0.8004490599996643,1902,1287,475
0.8031403569984832,1920,1281,465
0.8058315709986346,1921,1291,483
0.808520659998976,1743,1293,496
0.8112036229995283,1734,1264,481
0.8138918779986852,1789,1296,501
0.8165815920001478,1843,1275,470
0.819268971999918,1889,1271,464
0.8219593109988637,1914,1294,474
0.8246486909993109,1923,1267,458
0.8273340709984041,1799,1299,499
0.8300227009985974,1730,1270,484
0.8327112070001021,1761,1279,491
0.8353979200001049,1824,1311,499
0.8380863009988389,1872,1263,461
0.8407811809993291,1904,1289,473
0.8434693529998185,1920,1280,464
0.8461594410000544,1902,1296,485
0.8488472799999727,1738,1289,493
0.8515342430000601,1737,1264,480
0.8542215819998091,1797,1301,501
0.8569110459993681,1853,1270,464
0.8595975089992862,1897,1276,469
0.8622872229989298,1920,1290,473
0.8649764359997789,1923,1264,454
0.8676649829994858,1783,1303,498
0.8703531129995099,1737,1274,486
0.8730416189991956,1775,1285,497
0.8757299989993044,1834,1299,493
0.8784207539993076,1879,1267,464
0.8811111759987398,1907,1295,480
0.8837989309995464,1921,1279,464
0.8864896869999939,1872,1298,494
0.8891780670001026,1744,1285,485
0.8918913639990933,1761,1274,485
0.8946050359991204,1811,1318,511
0.8973036659990612,1866,1271,464
0.8999956299994665,1903,1281,479
0.9026874259998294,1922,1291,474
0.9053954319988406,1925,1279,466
0.9080924789996061,1773,1303,502
0.9107814839990169,1741,1269,486
0.9134768639996764,1787,1294,502
0.9161642439994466,1844,1287,481
0.9188568749996193,1889,1276,467
0.9215548379997927,1915,1296,483
0.9242464269991615,1926,1274,464
0.9269730569994863,1835,1301,496
0.9296684789987921,1739,1280,490
0.9323635259988805,1766,1278,491
0.9350564899996243,1818,1326,525
0.9377529949997552,1872,1264,462
0.9404441249989759,1905,1289,480
0.943134546998408,1921,1284,468
0.9458295939984964,1929,1295,481
0.9485207239995361,1762,1297,496
0.9512119789997087,1750,1271,484
0.9539035259986122,1803,1306,502
0.9565965309993771,1856,1284,478
0.9592922869996983,1897,1280,473
0.9619871669983695,1915,1295,483
0.9646819219997269,1929,1267,458
0.9673745529998996,1803,1303,499
0.9700691409998399,1728,1275,486
0.9727637299984053,1770,1282,494
0.9754535269985354,1833,1309,501
0.9781460319991311,1877,1264,461
0.9808387039993249,1905,1295,481
0.9835312089999206,1923,1281,467
0.9862236310000299,1899,1298,489
0.9889145109991659,1741,1291,495
0.9916033499994228,1744,1264,475
0.994296229999236,1802,1309,510
0.9969879439995566,1856,1274,472
0.9996796149989677,1901,1280,472
1.0024245789991255,1920,1293,475
1.0051867509992007,1926,1268,458
1.0079100069997367,1776,1307,507
1.0106112619996566,1733,1270,483
1.013302641998962,1779,1291,496
1.0159859809991758,1840,1291,483
1.0186773189998348,1884,1271,464
1.0213675739996688,1914,1296,481
1.0240567879991431,1924,1278,464
1.0267460429986386,1845,1298,496
1.0294360069983668,1732,1281,489
1.0321332619987515,1750,1271,486
1.03482435099977,1813,1317,511
1.0375154389985255,1866,1264,464
1.0402027780000935,1905,1286,480
1.042921115998979,1922,1290,475
1.0456127469988132,1933,1287,478
1.0483259599986923,1763,1301,499
1.0510157569988223,1745,1266,486
1.053706886999862,1797,1300,506
1.0563968930000556,1849,1287,480
1.0590840229997411,1890,1277,469
1.0617729030000191,1919,1296,485
1.0644683669997903,1927,1274,461
1.0671581639999204,1817,1301,496
1.0698478769991198,1739,1280,486
1.0725374659996305,1765,1279,490
1.0752251379999507,1830,1319,510
1.0779155599993828,1877,1265,457
1.0806043569991743,1907,1295,481
1.083292736999283,1926,1287,469
1.0859800339985668,1924,1295,487
1.0886736219999875,1745,1296,496
1.0913583769997786,1744,1267,486
1.094060923998768,1797,1296,502
1.096763720999661,1855,1278,471
1.0994543099986913,1899,1281,470
1.1021442319997732,1905,1283,466
1.1048340289999032,1933,1269,458
1.1075271169993357,1808,1307,497
1.1102246639984514,1746,1280,483
1.1129213779986458,1783,1291,493
1.115604340999198,1840,1312,498
1.1182922219995817,1885,1271,464
1.1209837269998388,1911,1296,483
1.1236732739998843,1926,1285,465
1.126363486999253,1889,1301,495
1.129055117999087,1746,1296,496
1.1317457479999575,1762,1275,485
1.134440044999792,1814,1318,511
1.1371383419991616,1866,1277,464
1.1398255549993337,1904,1287,477
1.1425138939994213,1923,1296,479
1.1452013159996568,1935,1277,464
1.1478869879993,1778,1307,505
1.1505736599992815,1738,1271,483
1.1532621229998767,1787,1291,501
1.1559505869990971,1840,1296,486
1.1586401749991637,1890,1279,465
1.161332138999569,1920,1301,485
1.1640214359995298,1936,1283,464
1.1667099409987713,1835,1297,496
1.1693974459994934,1682,1264,483
1.1720839099998557,1710,1252,482
1.1747717069993087,1783,1295,509
1.177458794998529,1847,1246,459
1.1801457169985952,1891,1274,471
1.182871888999216,1917,1277,465
1.1855651440000656,1923,1275,468
1.1882525659984822,1777,1298,498
1.1909724879988062,1761,1275,486
1.1936762850000378,1808,1304,503
1.1963770409984136,1856,1290,476
1.1990693369989458,1894,1282,467
1.2017598009988433,1922,1299,484
1.2044483059999038,1929,1280,462
1.2071502279995912,1833,1307,501
1.2098418579989811,1760,1287,494
1.2125326549994497,1788,1289,493
1.2152165769985004,1840,1329,511
1.2179065410000476,1879,1275,463
1.2205972960000508,1915,1299,482
1.2232875099998637,1932,1293,473
1.2259785149999516,1924,1301,492
1.2286680199995317,1749,1298,496
1.231356192000021,1744,1268,482
1.2340446139987762,1796,1305,511
1.2367329519984196,1856,1279,478
1.2394270409986348,1901,1281,477
1.242117004998363,1922,1296,481
1.2448070519985777,1933,1273,455
1.2474974319993635,1798,1303,503
1.2501866449983936,1730,1274,485
1.2528759839988197,1776,1284,496
1.2555658639994363,1835,1310,498
1.2582568689995242,1883,1268,463
1.2609469159997388,1915,1296,479
1.2636347970001225,1931,1285,468
1.2663252599995758,1890,1299,490
1.2690127649984788,1742,1288,493
1.2717007709998143,1747,1269,481
1.274389775999225,1808,1312,511
1.277078780998636,1862,1279,470
1.27976720299921,1904,1283,476
1.2824552080001013,1926,1295,477
1.285142504999385,1919,1264,457
1.2878311770000437,1785,1306,504
1.2905195570001524,1743,1273,484
1.2932340209990798,1783,1293,497
1.2959422349995293,1841,1297,482
1.298641780998878,1888,1274,460
1.3013381199998548,1920,1300,481
1.3040317919985682,1934,1281,467
1.3067274639997777,1849,1305,492
1.3094402609985991,1733,1282,493
1.312137098999301,1756,1274,489
1.3148278959997697,1814,1317,511
1.3175167350000265,1867,1265,463
1.3202051569987816,1909,1289,479
1.322942286999023,1926,1295,467
1.3256452919995354,1932,1294,481
1.3283690059997753,1750,1297,496
1.3310641779989965,1733,1269,480
1.333759849998387,1787,1296,506
1.3364549799989618,1847,1282,476
1.3391449849987112,1895,1279,468
1.3418398659996456,1922,1296,482
1.3445330380000087,1936,1275,464
1.3472249179994833,1806,1299,497
1.349917130999529,1715,1273,481
1.3526150950001465,1756,1272,490
1.3553106839990505,1822,1311,501
1.358005146999858,1877,1262,460
1.360698443999354,1910,1291,479
1.3633881989990186,1930,1283,468
1.3660819959986839,1910,1297,491
1.368774376998772,1727,1285,494
1.371464339999875,1728,1262,481
1.3741569289995823,1790,1298,506
1.3768491840000934,1855,1271,473
1.379538938999758,1898,1278,470
1.382232693998958,1922,1296,478
1.3849296159987716,1935,1267,453
1.3876221629998327,1783,1301,499
1.3903154179988633,1724,1265,481
1.393007756998486,1774,1279,496
1.3956990119986585,1836,1299,495
1.3983913929987466,1882,1267,464
1.4010834389991942,1914,1294,473
1.4037728610001068,1933,1281,461
1.4064636999992217,1875,1299,493
1.4091692049987614,1741,1286,493
1.4118744190000143,1749,1269,482
1.4145670489997428,1809,1312,511
1.4172555539989844,1863,1270,464
1.4199413099995581,1905,1284,471
1.4226301899998361,1926,1294,471
1.42532256999948,1935,1279,466
1.4280149089991028,1778,1306,499
1.4307101639988105,1750,1274,481
1.4334045439991314,1793,1297,499
1.436095007999029,1847,1296,486
1.4387903879996884,1891,1278,468
1.4414823520000937,1919,1299,484
1.4441730649996316,1931,1281,464
1.446863694998683,1840,1303,492
1.4495587419987714,1735,1281,489
1.4522544979990926,1760,1275,489
1.4549659609983792,1822,1323,526
1.4576597999985097,1872,1265,464
1.460353304999444,1912,1293,482
1.463042809999024,1923,1291,473
1.465735648998816,1936,1296,483
1.4684266119984386,1769,1302,498
1.4711194510000496,1749,1277,486
1.4738141649995669,1806,1307,511
1.4765077109987033,1853,1287,479
1.4792002999984106,1899,1283,471
1.4818965139984357,1922,1302,481
1.4845896019996871,1935,1277,462
1.4872808159998385,1818,1310,503
1.489974820999123,1744,1279,492
1.4926677009989362,1778,1286,496
1.4953579569992144,1836,1322,507
1.4980505029998312,1878,1271,464
1.5007444669990946,1920,1296,481
1.5034363889990345,1930,1285,464
1.5061308529984672,1915,1309,491
1.5088228159984283,1757,1296,496
1.5115362379983708,1754,1275,483
1.5142335349992209,1808,1313,511
1.516924706998907,1861,1283,474
1.5196165869983815,1904,1285,473
1.5223087169997598,1930,1296,478
1.525001763999171,1935,1270,457
1.5276954779983498,1782,1307,501
1.5303922329985653,1731,1269,484
1.5330866549993516,1776,1286,497
1.535779701998763,1840,1299,493
1.5384747489988513,1885,1271,464
1.5411698789994261,1917,1298,485
1.5438635929986049,1935,1282,466
1.5465593479984818,1872,1302,496
1.549256977999903,1747,1293,495
1.5519486919984047,1764,1277,490
1.5546426969995082,1821,1322,523
1.5573364939991734,1870,1275,466
1.5600284579995787,1910,1293,478
1.5627229209985671,1930,1296,479
1.565416509998613,1934,1285,474
1.568108139999822,1773,1307,499
1.5708023119987047,1744,1275,485
1.5734999420001259,1791,1296,503
1.576192821999939,1847,1294,483
1.5788979939989076,1893,1279,468
1.5815932079985942,1921,1301,483
1.5843156719984108,1934,1279,464
1.587009468999895,1834,1298,493
1.5897038069997507,1739,1280,485
1.5923976459998812,1765,1278,491
1.595090150998658,1821,1324,511
1.5977840309988096,1877,1265,464
1.6004777859998285,1914,1294,481
1.6031680830001278,1927,1290,474
1.6058673389998148,1933,1295,481
1.6085648019998189,1748,1291,491
1.6112593069992727,1742,1264,475
1.6139510209995933,1799,1297,500
1.616639400999702,1854,1277,473
1.6193286569996417,1898,1278,467
1.6220190779986297,1926,1295,478
1.624709208999775,1934,1270,455
1.6274013389993343,1801,1312,501
1.6300947189993167,1732,1278,483
1.6327888079995319,1773,1283,496
1.6354777299984562,1833,1312,502
1.6382267349999893,1883,1269,464
1.6409251149998454,1915,1297,480
1.6436191619995952,1933,1285,467
1.6463094589998946,1892,1302,493
1.6490050479987985,1752,1291,496
1.651696594999521,1760,1272,485
1.6543913499990595,1811,1317,511
1.657085646998894,1861,1279,468
1.6597782769986225,1907,1285,475
1.6624726569989434,1925,1296,478
1.6651672039988625,1933,1274,464
1.6678593339984218,1778,1306,502
1.6705532559990388,1734,1271,485
1.6732497199991485,1782,1291,496
1.675942641999427,1840,1295,485
1.6786366050000652,1888,1274,467
1.6813294019993918,1919,1299,486
1.6840181159986969,1934,1281,464
1.6867110799994407,1856,1303,496
1.6894072509985563,1733,1284,495
1.6920986320001248,1756,1273,487
1.6947929699999804,1815,1319,523
1.6974873509989266,1869,1266,464
1.7001780639984645,1909,1292,478
1.7028722359991662,1929,1293,473
1.7055688659984298,1937,1293,477
1.7082882469985634,1764,1298,498
1.7109835430001112,1737,1273,484
1.7136757989992475,1792,1299,505
1.7163682619993779,1851,1286,483
1.7190601839993178,1896,1279,471
1.721752313998877,1921,1298,482
1.724441319998732,1935,1278,464
1.7271316999995179,1812,1302,499
1.729826246999437,1728,1276,485
1.7325200849991234,1760,1275,490
1.7352116739984922,1826,1318,507
1.7379068459995324,1874,1264,461
1.7406028929999593,1915,1295,480
1.7432941899987782,1931,1286,469
1.7459908199998608,1922,1297,489
1.748685699998532,1731,1291,496
1.751377913999022,1728,1263,483
1.7540721689983911,1790,1297,507
1.7567658409989235,1853,1273,473
1.7594580959994346,1899,1279,471
1.7621519770000305,1923,1296,482
1.7648439399999916,1934,1271,457
1.7675367789997836,1793,1307,499
1.7702324919991952,1735,1271,482
1.7729277889993682,1774,1283,496
1.7756196279988217,1838,1303,496
1.7783144659988466,1887,1270,464
1.7810094719989138,1915,1296,482
1.7837005599994882,1934,1284,468
1.7863957319987094,1886,1306,496
1.7890902369999822,1750,1293,495
1.7917810339986318,1763,1275,487
1.7944742479994602,1815,1328,526
1.7971689609985333,1868,1285,473
1.7998610919985367,1909,1296,480
1.8025570139998308,1925,1300,479
1.8052524769991578,1936,1282,468
1.8079441909994785,1776,1310,503
1.8106382379992283,1738,1271,482
1.8133292849997815,1784,1296,500
1.816020539999954,1845,1295,487
1.8187130449987308,1894,1276,468
1.8214096339997923,1919,1302,485
1.8240978469984839,1931,1283,465
1.8267908109992277,1845,1303,496
1.8294852740000351,1729,1282,491
1.8321766549997847,1757,1273,487
1.8348664929999359,1819,1319,525
1.8375600819999818,1871,1267,464
1.8402549200000067,1908,1293,480
1.8429762169998867,1926,1294,471
1.8456718889992771,1936,1296,483
1.8483675199986465,1757,1299,497
1.8510588159988401,1740,1270,483
1.8537541969999438,1797,1299,511
1.8564482019992283,1854,1286,482
1.859139290998428,1904,1282,471
1.8618354629998066,1923,1301,483
1.8645333429994935,1936,1277,463
1.8672244310000679,1795,1299,498
1.8699198119993525,1708,1264,481
1.8726146499993774,1746,1266,490
1.875306821999402,1815,1306,501
1.8780012859988346,1875,1261,458
1.8806952489994728,1919,1293,482
1.883385212999201,1933,1283,466
1.8860786349996488,1909,1297,489
1.888771807000012,1658,1264,486
1.8914625199995498,1653,1229,470
1.8941568169993843,1734,1265,498
1.8968529469984787,1818,1244,464
1.899545368998588,1877,1255,465
1.9022398329998396,1917,1277,473
1.9049331719998008,1934,1256,450
1.9076251769984083,1807,1299,501
1.9103204739985813,1756,1274,483
1.9130155619986908,1796,1289,493
1.9157098589985253,1853,1309,496
1.918402363999121,1891,1278,470
1.921093827999357,1922,1302,487
1.9237845419993391,1935,1287,465
1.9264756299999135,1883,1308,496
1.9291697190001287,1750,1294,496
1.9318626409985882,1769,1277,487
1.934557603999565,1820,1323,511
1.93725140099923,1871,1278,469
1.939941614999043,1911,1295,480
1.9426354119987082,1927,1296,480
1.9453276669992192,1936,1286,474
1.948016379999899,1758,1301,501
1.9507087189995218,1723,1265,482
1.9534009740000329,1775,1287,499
1.95609031299864,1840,1286,483
1.9587828179992357,1891,1273,467
1.9614774900001066,1922,1297,482
1.964168703998439,1932,1280,463
1.9668601260000287,1836,1299,495
1.9695544639998843,1706,1273,482
1.9722467189985764,1747,1265,484
1.9749655579998944,1811,1314,511
1.977658646999771,1870,1263,463
1.980351359999986,1909,1290,477
1.9830424899992067,1925,1286,467
1.9857327039990196,1938,1295,483
1.98842837599841,1743,1294,497
1.991120463999323,1728,1262,482
1.9938147609991574,1783,1293,501
1.9965100579993305,1842,1278,475
1.9992016469986993,1895,1278,467
2.001895984998555,1922,1296,479
2.0046405739994952,1936,1277,459
2.0073693710000953,1797,1303,496
2.010065709999253,1707,1266,481
2.0127622979998705,1753,1271,492
2.0154713869997067,1820,1298,492
2.018171600999267,1875,1264,463
2.020867522000117,1914,1294,481
2.023565568999402,1931,1285,469
2.0262585330001457,1898,1300,490
2.0289550379984576,1730,1286,495
2.0316509599997516,1740,1265,482
2.034350881998762,1799,1306,511
2.0370487209984276,1853,1271,467
2.0397406839983887,1904,1282,472
2.0424343979993864,1925,1295,475
2.045130569998946,1935,1274,464
2.0478225329989073,1759,1299,499
2.050517746998594,1712,1261,481
2.0532130020001205,1763,1277,493
2.0559023409987276,1827,1285,477
2.0586040130001493,1882,1269,464
2.061302934998821,1918,1297,482
2.06399456500003,1936,1280,464
2.0666902779994416,1844,1296,494
2.06938532499953,1712,1272,484
2.0734156250000524,1735,1263,480
2.0761962969991146,1806,1307,511
2.078983260998939,1887,1260,469
2.0816844739983935,1920,1283,478
2.084378020999793,1934,1265,458
2.087071025998739,1806,1291,493
2.0897680319994834,1703,1263,480
2.092462494998472,1743,1259,487
2.095152583999152,1813,1305,505
2.0978470889986056,1870,1259,462
2.1005423859987786,1914,1286,478
2.103236349999861,1931,1283,464
2.1059324799989554,1931,1296,482
2.108630651999192,1728,1287,496
2.1113235739994707,1725,1259,479
2.1140197459990304,1786,1295,503
2.116713333998632,1851,1269,467
2.1194030059996294,1897,1278,475
2.12209259500014,1925,1296,483
2.124784849998832,1934,1270,458
2.127476730000126,1778,1297,499
2.130168818999664,1706,1264,483
2.1328604909995192,1753,1269,493
2.135554703998423,1821,1296,496
2.138245834999907,1875,1264,463
2.1409427559992764,1917,1294,483
2.143635511998582,1933,1281,466
2.1463295590001508,1888,1298,491
2.149023396999837,1726,1280,493
2.151712985998529,1735,1263,480
2.1544045739992725,1799,1306,511
2.157094579999466,1861,1270,466
2.159784084999046,1904,1282,476
2.1624777569995786,1929,1293,477
2.1651711790000263,1936,1273,467
2.167861516998528,1749,1296,498
2.170554230999187,1703,1261,478
2.1732501939986832,1760,1279,496
2.175941490999321,1827,1280,483
2.1786349969988805,1886,1265,465
2.1813295439987996,1919,1296,482
2.1840215899992472,1935,1280,464
2.1867144289990392,1846,1299,496
2.1894100589997834,1715,1273,489
2.192099939999025,1740,1263,485
2.194793069998923,1807,1309,511
2.197484907999751,1867,1262,464
2.200175871999818,1909,1286,480
2.2028685440000118,1930,1290,475
2.2055640069993387,1937,1290,479
2.208258262999152,1739,1295,496
2.210980975998609,1715,1258,480
2.2136735650001356,1776,1287,505
2.2163673199993355,1840,1278,480
2.2190589919991908,1890,1271,471
2.221760455999174,1923,1289,484
2.2244547529990086,1934,1275,463
2.227147174999118,1802,1296,496
2.229837429998952,1701,1264,481
2.2325309769985324,1744,1264,486
2.2352221900000586,1812,1306,507
2.237918278999132,1870,1259,458
2.2406130759991356,1915,1292,483
2.243305997999414,1934,1285,467
2.246001002999037,1918,1298,489
2.248706549999042,1728,1286,496
2.2514001799991092,1725,1260,480
2.2540944769989437,1787,1296,506
2.256787190999603,1851,1265,469
2.259479278998697,1899,1279,474
2.2621731179988274,1930,1296,478
2.264866372999677,1936,1269,455
2.267559336998602,1775,1298,498
2.2702547589997266,1712,1264,479
2.2729471389993705,1757,1275,494
2.2756377269997756,1828,1296,495
2.278331690999039,1879,1264,464
2.281021487999169,1920,1296,481
2.283712825999828,1936,1283,464
2.2864068319995567,1874,1297,489
2.289098961999116,1713,1279,490
2.2917888419997325,1731,1259,481
2.2944827219998842,1795,1301,511
2.297174477998851,1857,1264,469
2.299866982999447,1906,1283,479
2.302562779999789,1925,1295,477
2.3052544929996657,1936,1279,467
2.3079456649993517,1756,1299,498
2.310640087000138,1713,1262,479
2.3133348840001418,1767,1282,499
2.316025513999193,1835,1281,485
2.318718477999937,1887,1269,468
2.321411774999433,1922,1297,483
2.3241027379990555,1934,1277,465
2.3267929519988684,1839,1298,497
2.3294912069995917,1714,1274,486
2.3321831289995316,1743,1264,487
2.3348768429987103,1808,1314,511
2.33757222299937,1867,1262,462
2.3402954779994616,1906,1291,481
2.342989609000142,1935,1288,469
2.345684406000146,1936,1296,483
2.3483817019987328,1745,1295,499
2.351071540999328,1725,1263,483
2.353764045999924,1788,1295,505
2.35645734299942,1845,1278,479
2.3591477229983866,1896,1277,471
2.36183985399839,1922,1297,482
2.364537900999494,1935,1276,461
2.3672297809989686,1798,1300,497
2.3699840779991064,1712,1266,481
2.3727251249983965,1750,1273,490
2.3754268389984645,1824,1306,500
2.3781190519985103,1875,1264,462
2.380810140999529,1913,1296,482
2.383500270998411,1934,1282,464
2.386190192999493,1902,1297,484
2.3888801979992422,1723,1282,492
2.3915678699995624,1730,1259,481
2.3942570839990367,1794,1297,509
2.39696437999919,1855,1267,473
2.3996682609995332,1903,1281,475
2.402360432999558,1930,1296,479
2.4050606049986527,1930,1268,464
2.4077554019986565,1783,1305,506
2.410447114998533,1732,1269,483
2.4131357449987263,1778,1286,497
2.4158477509990917,1840,1295,491
2.418557797998801,1888,1278,467
2.4212550109987205,1921,1307,486
2.4239498499991896,1936,1287,467
2.4266441879990452,1855,1307,496
2.4293354019991966,1727,1281,487
2.4320281149994116,1745,1267,483
2.434724203998485,1809,1317,511
2.437419792999208,1867,1268,464
2.440110380999613,1910,1290,483
2.4428052619987284,1931,1294,480
2.445498391998626,1938,1291,479
2.4482061469989276,1748,1297,503
2.450931651999781,1725,1264,477
2.4536294489989814,1778,1295,501
2.456350954998925,1843,1281,482
2.4590475850000075,1894,1277,471
2.461744672998975,1924,1299,481
2.464441136999085,1936,1278,461
2.4671328919994266,1790,1290,491
2.469827272998373,1707,1264,483
2.472522902999117,1743,1266,487
2.4752146579994587,1810,1307,505
2.4779096219990606,1872,1261,459
2.480602834999445,1909,1291,482
2.4832951739990676,1934,1285,465
2.485990053999558,1921,1299,485
2.4886863929987157,1725,1285,493
2.491381897998508,1726,1260,481
2.4940780279994215,1783,1295,508
2.4967740749998484,1849,1270,473
2.499465330000021,1900,1280,475
2.502157876999263,1927,1296,478
2.504851673998928,1937,1269,460
2.5075430130000314,1776,1298,502
2.510244225999486,1713,1264,480
2.5129415649989824,1761,1276,491
2.515633611999874,1828,1296,492
2.518329491998884,1881,1266,464
2.521025080999607,1918,1296,483
2.5237145439987216,1935,1283,464
2.5264108829996985,1872,1300,491
2.529105345998687,1717,1280,486
2.5317974769986904,1734,1261,481
2.5344932319985674,1802,1302,511
2.5371878199985076,1861,1265,464
2.5398790759991243,1906,1283,475
2.542572330999974,1929,1293,480
2.5452651279993006,1938,1280,467
2.547955465999621,1747,1296,496
2.550649054999667,1712,1258,478
2.553341768998507,1767,1281,498
2.5560328569990816,1827,1280,482
2.5587289039995085,1887,1266,466
2.561423533999914,1922,1296,483
2.5641132059990923,1935,1279,464
2.5668077949994768,1837,1299,496
2.5695010919989727,1727,1275,488
2.5721918889994413,1749,1265,487
2.5748965610000596,1814,1317,511
2.5775943159987946,1872,1264,464
2.5803151549989707,1907,1294,481
2.583009909998509,1934,1289,478
2.585705497998788,1938,1296,485
2.5884008369994262,1735,1294,496
2.591092425998795,1715,1261,480
2.593788180998672,1781,1290,501
2.596482560998993,1843,1276,472
2.5991743999984465,1899,1278,469
2.6018694049998885,1931,1297,481
2.604566284999237,1939,1275,462
2.607261623999875,1763,1292,493
2.6099575869993714,1659,1246,475
2.6126528839995444,1712,1248,482
2.61534538900014,1798,1287,494
2.618041102999996,1860,1244,449
2.62073456699909,1909,1280,480
2.623427114000151,1929,1279,465
2.626119077000112,1891,1294,484
2.6288109159995656,1681,1266,484
2.631514712998978,1684,1236,469
2.634207551000145,1765,1279,497
2.6369047230000433,1840,1252,459
2.6395985199997085,1894,1266,467
2.642294066999966,1922,1283,472
2.644989364000139,1936,1263,454
2.6476791609984502,1795,1302,499
2.650372915999469,1751,1274,487
2.6530689209994307,1791,1293,496
2.6557615929996246,1849,1301,491
2.658454972999607,1891,1279,466
2.6611488119997375,1924,1304,487
2.663840526000058,1936,1289,466
2.6665356139983487,1868,1307,496
2.669226078000065,1729,1284,495
2.6719151249999413,1747,1267,483
2.674610254998697,1808,1315,525
2.677302009999039,1869,1269,469
2.6799929319986404,1907,1290,482
2.682685853998919,1934,1295,473
2.685386233999452,1940,1285,474
2.688078780998694,1748,1300,498
2.69077449499855,1714,1262,478
2.693468416999167,1776,1286,498
2.6961604640000587,1838,1280,482
2.6988544689993432,1891,1275,473
2.7015479739984585,1921,1298,485
2.7042416039985255,1935,1280,464
2.708905612998933,1823,1301,496
2.7116064940000797,1730,1269,496
2.7143060819998936,1798,1309,511
2.7170064209985867,1857,1277,473
2.7197005929992883,1904,1287,479
2.7223960979990807,1927,1299,477
2.7250898120000784,1936,1275,465
2.7277751919991715,1754,1297,502
2.7304654469990055,1703,1261,479
2.733161118998396,1760,1270,491
2.735855207998611,1829,1286,487
2.7385514629986574,1884,1267,469
2.7412480099992536,1919,1297,482
2.743940639998982,1936,1281,464
2.7466361039987532,1845,1298,495
2.7493333169986727,1708,1271,483
2.752028031000009,1734,1259,483
2.754723160998765,1798,1306,510
2.757418457998938,1864,1261,464
2.7601093799985392,1907,1285,479
2.762802676999854,1931,1291,475
2.7654973899989272,1939,1288,479
2.7681903960001364,1732,1293,496
2.7708950259984704,1703,1254,475
2.773593322999659,1770,1285,499
2.7763189950001106,1834,1274,478
2.779015124999205,1890,1267,467
2.781712713998786,1924,1296,480
2.7844076769997628,1936,1276,461
2.7871023079987935,1792,1294,496
2.789797395998903,1681,1257,479
2.7924912349990336,1725,1255,482
2.7951836149986775,1802,1297,501
2.7978798699987237,1868,1252,458
2.800571541998579,1911,1285,479
2.803263463998519,1934,1283,470
2.805960885998502,1921,1296,487
2.8086599749985908,1701,1278,489
2.811354562998531,1701,1248,479
2.8140522349985986,1765,1285,502
2.8167464899997867,1841,1261,467
2.8194404959995154,1897,1270,473
2.8221333339988632,1929,1293,479
2.8248266729988245,1936,1267,457
2.8275123029998213,1759,1294,497
2.8302041419992747,1680,1253,475
2.8328992719998496,1737,1263,478
2.83559173499998,1813,1280,483
2.838286991000132,1872,1261,464
2.840982495999924,1916,1291,480
2.8436758339994412,1935,1281,465
2.8463722149990645,1871,1297,489
2.8490681779985607,1698,1271,486
2.85175905899996,1712,1249,480
2.8544531889983773,1786,1296,509
2.857146776999798,1854,1259,464
2.8598386159992515,1903,1280,474
2.8625335799988534,1927,1290,475
2.8652281260001473,1937,1276,467
2.8679200899987336,1742,1295,497
2.8706149289992027,1695,1251,477
2.8733099339988257,1749,1273,493
2.8760041059995274,1823,1278,479
2.878699777998918,1882,1265,464
2.881394365998858,1920,1295,481
2.884085662999496,1936,1278,464
2.886778209998738,1827,1296,491
2.8894714649995876,1696,1264,481
2.892161595998914,1728,1257,486
2.894855642998664,1804,1305,511
2.897548522998477,1867,1253,459
2.9002424029986287,1907,1286,475
2.902958532999037,1934,1287,469
2.9056527049997385,1936,1294,481
2.9083515439997427,1733,1291,496
2.911039423999682,1712,1259,478
2.9137329709992628,1778,1291,502
2.9164308509989496,1844,1277,474
2.919123731999207,1898,1277,471
2.921817819998978,1927,1296,486
2.9245095339992986,1935,1274,464
2.927194830999724,1794,1299,497
2.929888293998374,1710,1264,479
2.932583423998949,1746,1269,487
2.9352776799987623,1818,1307,502
2.937971559998914,1872,1251,457
2.9406684819987277,1911,1289,474
2.9433605289996194,1931,1281,464
2.9460557009988406,1904,1296,481
2.9487491639993095,1706,1274,486
2.9514363779999258,1709,1247,470
2.954133674998957,1776,1291,497
2.9568295129993203,1843,1263,463
2.9595217689984565,1901,1279,476
2.9622184410000045,1926,1295,478
2.9649119039986545,1936,1269,457
2.9676029089987424,1775,1299,497
2.970298872998683,1709,1262,479
2.9729961279990675,1760,1275,491
2.9756891329998325,1831,1295,487
2.978392721999626,1883,1267,463
2.981090476998361,1919,1296,483
2.983783315999972,1933,1281,466
2.9864789879993623,1861,1298,495
2.9891747849997046,1712,1274,487
2.991867831999116,1729,1259,480
2.9945615870001348,1797,1303,509
2.9972567169988906,1858,1264,465
2.999950846999127,1904,1283,471
3.0026464779984963,1930,1292,477
3.0053943999992043,1936,1281,475
3.008121904998916,1735,1296,497
3.010818451999512,1710,1255,475
3.0135147490000236,1769,1281,498
3.0162072959992656,1838,1275,479
3.018925592999949,1888,1267,466
3.021631722998791,1920,1296,482
3.0243734779996885,1936,1275,464
3.027069024999946,1807,1296,498
3.0297637809999287,1709,1264,483
3.0324668689991086,1744,1264,487
3.035160540999641,1813,1308,506
3.0378516709988617,1872,1262,462
3.0405472179991193,1911,1285,471
3.04323863999889,1936,1287,467
3.0459319789988513,1920,1300,486
3.0486271509998915,1717,1281,491
3.051319447999049,1712,1254,477
3.0540142029985873,1781,1291,503
3.0567098749997967,1845,1265,469
3.059402337999927,1900,1276,471
3.0620970939999097,1926,1296,478
3.0647905149999133,1937,1268,457
3.0674829370000225,1776,1297,498
3.070179692998863,1705,1262,479
3.072874489998867,1750,1270,493
3.0755655779994413,1822,1295,491
3.0782603329989797,1877,1264,463
3.0809534219988564,1916,1295,480
3.083645885999431,1936,1282,465
3.0863400159996672,1875,1298,491
3.0890358130000095,1711,1279,491
3.0917291099995055,1731,1260,481
3.094425739998769,1795,1301,509
3.0971200369986036,1858,1265,464
3.0998108749990934,1905,1281,475
3.1025046719987586,1931,1294,478
3.1051976779999677,1936,1275,464
3.107888598999125,1754,1297,495
3.1105830629985576,1712,1263,479
3.1132758599997032,1773,1282,496
3.1159672399990086,1835,1283,481
3.118661036998674,1891,1269,465
3.121353916998487,1920,1297,481
3.124049088999527,1931,1280,462
3.1267438449995097,1834,1298,491
3.129435390999788,1711,1270,483
3.1321264379985223,1737,1264,482
3.134817693999139,1807,1308,511
3.137509031999798,1867,1259,463
3.1402005789987015,1908,1287,481
3.1429032089999964,1934,1282,464
3.1455972559997463,1937,1296,477
3.148320469999817,1731,1294,496
3.151014557999588,1712,1255,478
3.153711396998915,1776,1285,507
3.156408401999215,1839,1274,479
3.1591019079987745,1894,1273,470
3.1617959549985244,1926,1296,480
3.1644892929998605,1936,1275,459
3.1671803399985947,1798,1296,498
3.169874761999381,1711,1264,482
3.172567933999744,1747,1269,493
3.1752598969997052,1821,1306,505
3.177953777998482,1875,1259,459
3.1806454909983586,1917,1294,480
3.1833361629996944,1931,1287,468
3.186039501999403,1906,1300,487
3.1887803399986296,1712,1280,493
3.1914845119990787,1715,1250,479
3.194180183998469,1786,1296,505
3.1968749399984517,1850,1264,466
3.1995662359986454,1901,1279,469
3.2022593669989874,1927,1294,478
3.20495274699897,1936,1264,457
3.2076457109997136,1766,1297,498
3.210338798999146,1706,1259,479
3.2130333039986,1748,1271,493
3.215724934998434,1824,1287,490
3.218418356998882,1883,1264,464
3.2211148619990126,1917,1296,482
3.2238087419991643,1936,1281,467
3.2264994969991676,1861,1297,496
3.229192252998473,1712,1275,490
3.2318813409983704,1732,1257,473
3.2345697629989445,1801,1303,509
3.2372594349999417,1861,1264,464
3.2399496069992892,1907,1279,477
3.2426426949987217,1927,1293,476
3.245334784000079,1936,1277,464
3.2480242059991724,1732,1295,498
3.2507247109988384,1702,1254,477
3.2534238829994138,1761,1279,497
3.256117387998529,1830,1276,481
3.258811726998829,1889,1266,467
3.2615053159988747,1919,1296,483
3.264198111999576,1936,1278,464
3.2669041589997505,1817,1296,489
3.2695996229995217,1701,1266,482
3.2723217949987884,1736,1264,485
3.2750145499994687,1807,1309,511
3.277708679999705,1865,1256,460
3.2804027689999202,1909,1289,478
3.2830979409991414,1930,1287,470
3.2857940300000337,1934,1297,487
3.2884883679998893,1733,1289,493
3.291180539999914,1719,1260,482
3.293874461998712,1781,1293,506
3.296567800998673,1843,1271,476
3.2992585969986976,1901,1278,473
3.3019555609989766,1929,1296,481
3.304648190998705,1938,1275,462
3.3073389879991737,1765,1295,496
3.3100328269993042,1669,1252,477
3.312726581998504,1728,1255,487
3.3154200869994384,1808,1293,495
3.3181129259992304,1872,1255,462
3.320807722999234,1915,1291,480
3.3234988109998085,1935,1280,464
3.326484774999699,1872,1291,481
3.3291948219994083,1611,1244,476
3.331889118999243,1632,1217,461
3.3345799159997114,1735,1264,496
3.3372700049985724,1824,1228,453
3.339960926999993,1887,1253,465
3.342655639999066,1921,1266,465
3.3453498119997676,1935,1266,465
3.3480443179996655,1754,1284,496
3.3507409889989503,1729,1259,485
3.3534366200001386,1783,1283,501
3.356127082999592,1841,1280,483
3.358820671999638,1893,1274,470
3.3615147189993877,1922,1299,483
3.364205473999391,1936,1280,464
3.366957812999317,1837,1307,495
3.369653150999511,1738,1280,489
3.372345697998753,1770,1278,489
3.375042952999138,1819,1326,511
3.37774087499929,1877,1265,463
3.3804369639983634,1919,1297,482
3.383127177999995,1935,1294,473
3.38582201600002,1933,1300,486
3.3885164379989874,1727,1290,496
3.3912443179997354,1716,1261,480
3.3939519899995503,1782,1294,502
3.3966488709993428,1844,1271,473
3.399339958999917,1899,1279,475
3.402042088999224,1921,1296,484
3.4047443449999264,1936,1274,461
3.407436682999105,1777,1299,501
3.4101308549998066,1711,1264,481
3.4128291519991762,1755,1273,494
3.415521365999666,1825,1296,495
3.418215537998549,1877,1264,464
3.420912125999166,1916,1296,482
3.4236067149995506,1935,1285,466
3.4262996779998502,1881,1299,492
3.428993099998479,1712,1278,491
3.4316843139986304,1728,1258,480
3.434375860999353,1795,1297,509
3.4370659079995676,1855,1265,464
3.439755620998767,1903,1282,477
3.442452167999363,1929,1293,477
3.4451493819997268,1937,1278,465
3.447847303999879,1744,1296,496
3.450545850999333,1697,1253,478
3.453241105999041,1754,1275,496
3.4559324439997,1824,1279,481
3.458627115998752,1886,1266,464
3.4613246219996654,1917,1296,483
3.464015876999838,1936,1278,463
3.4667100489987206,1835,1297,493
3.469403845998386,1703,1267,484
3.4720944759992562,1730,1259,483
3.474789730998964,1806,1306,511
3.477487152998947,1862,1257,461
3.4801798249991407,1907,1286,482
3.4828751219993137,1930,1287,474
3.4855720859995927,1937,1291,481
3.4882939660001284,1712,1285,495
3.49098967899954,1689,1239,474
3.4936863929997344,1761,1275,497
3.496381606999421,1827,1265,468
3.4990761119988747,1890,1265,465
3.5017710749998514,1925,1294,480
3.5044659139985015,1936,1270,459
3.507159293998484,1786,1290,494
3.509858382998573,1683,1254,476
3.5125540959998034,1728,1255,481
3.515245976999722,1808,1296,496
3.5179404399987106,1869,1251,458
3.5206349039999623,1911,1285,480
3.523326825999902,1932,1280,465
3.526021955998658,1908,1296,482
3.5287148779989366,1696,1271,486
3.5314049669996166,1697,1244,474
3.5340968879991124,1771,1281,500
3.53678735199901,1840,1259,469
3.53947744099969,1897,1271,469
3.5421685289984453,1925,1287,474
3.544863325998449,1937,1264,453
3.5475545399986004,1751,1293,495
3.550249002999408,1687,1249,473
3.5529430089991365,1738,1263,487
3.5556349299986323,1820,1281,485
3.5583295189990167,1877,1261,462
3.5610248159991897,1914,1293,481
3.563716487999045,1934,1278,464
3.566409035000106,1862,1296,490
3.5691097899998567,1696,1270,485
3.5718055039997125,1714,1254,476
3.574505175998638,1789,1297,507
3.577199263998409,1854,1261,463
3.579890227998476,1904,1280,473
3.5825830659996427,1933,1289,478
3.585279946999435,1936,1277,467
3.5879716179988463,1737,1289,496
3.590666082000098,1695,1248,475
3.5933937539994076,1756,1275,496
3.5961009259990533,1824,1275,475
3.5987954729989724,1885,1264,464
3.6014898949997587,1914,1293,479
3.604181274999064,1935,1275,461
3.6068734049986233,1815,1293,486
3.6095673269992403,1697,1264,481
3.6122582489988417,1731,1259,481
3.6150397549990885,1805,1302,511
3.61773788499886,1867,1255,458
3.6204346399990754,1909,1285,481
3.623127228998783,1927,1284,469
3.6258219009996537,1932,1296,483
3.6285190309990867,1712,1282,490
3.6312130779988365,1705,1249,464
3.6339060829996015,1776,1284,499
3.6366058379990136,1840,1264,468
3.639301968998552,1895,1273,469
3.6419932239987247,1923,1293,477
3.644687645999511,1937,1269,458
3.6473784429999796,1774,1296,497
3.65007382299882,1702,1259,479
3.652766035998866,1747,1264,490
3.655456916998446,1823,1296,494
3.658150254999782,1876,1263,462
3.660845551999955,1919,1294,483
3.663538390999747,1936,1283,465
3.6662409379987366,1890,1297,485
3.6689414429984026,1714,1279,490
3.6716350319984485,1727,1259,479
3.6743309529992985,1793,1299,507
3.677025541999683,1853,1266,465
3.6797175470001093,1905,1281,473
3.68241188599859,1926,1295,474
3.6851060159988265,1936,1274,464
3.687798604998534,1761,1298,498
3.6904926520001027,1712,1264,480
3.6931838239997887,1769,1280,496
3.6958740369991574,1834,1285,483
3.6985678339988226,1887,1271,464
3.70126471399999,1921,1298,482
3.7039521779988718,1935,1278,463
3.706645349999235,1845,1303,496
3.7093412300000637,1712,1271,484
3.7120326939984807,1733,1263,485
3.7147268659991823,1805,1309,511
3.71742132899999,1862,1263,463
3.720111458998872,1909,1289,481
3.72280304800006,1933,1291,475
3.725495802998921,1937,1292,478
3.7281865579989244,1729,1293,495
3.7308784799988643,1710,1254,471
3.733573110999714,1770,1282,496
3.7362934489992767,1834,1275,477
3.738986037998984,1893,1265,464
3.7416786260000663,1925,1296,481
3.744370047999837,1937,1275,463
3.747060136998698,1801,1295,494
3.7497518089985533,1697,1262,481
3.752446438998959,1738,1262,488
3.7551389029995335,1808,1300,505
3.7578347829985432,1869,1248,451
3.7605347049993725,1907,1277,464
3.7632321679993765,1929,1276,458
3.765929174000121,1915,1292,474
3.7686245539989613,1699,1270,479
3.771315225998478,1695,1241,464
3.7740107310000894,1769,1277,492
3.7767044859992893,1836,1254,460
3.779396033000012,1891,1265,464
3.7820914129988523,1920,1285,464
3.7847856270000193,1934,1264,447
3.7874780490001285,1772,1303,498
3.790173845998652,1696,1263,475
3.7928692259993113,1747,1273,490
3.795596730999023,1821,1294,494
3.798315111998818,1878,1264,465
3.8010116169989487,1916,1294,483
3.8037032469983387,1936,1282,464
3.8063986689994636,1866,1296,487
3.809092340999996,1711,1275,486
3.8117843879990687,1728,1255,479
3.814480309998544,1794,1301,509
3.8171753989990975,1855,1263,459
3.8198657789998833,1904,1282,474
3.8225589919984486,1930,1291,473
3.8252516229986213,1936,1279,466
3.827945960998477,1766,1299,501
3.8306384249990515,1730,1265,481
3.8333289719994355,1779,1287,501
3.8360193519984023,1839,1285,485
3.838710440999421,1891,1275,468
3.8414014459995087,1921,1299,483
3.8440862839997862,1936,1283,458
3.8467785809989437,1833,1299,493
3.849474544998884,1715,1275,488
3.8521647170000506,1743,1264,485
3.854857929998616,1811,1314,511
3.857551851999233,1871,1264,464
3.8602467739983695,1906,1290,479
3.8629645289984182,1933,1291,474
3.8656591179988027,1936,1294,485
3.8683534569991025,1724,1289,490
3.871044544999677,1703,1253,476
3.873740133998581,1773,1284,499
3.876434263998817,1840,1269,474
3.8791263529983553,1891,1270,469
3.88182119099838,1926,1296,483
3.8845133209997584,1935,1271,458
3.887203659998704,1790,1296,496
3.8898991649984964,1698,1262,477
3.8925958789986908,1744,1264,491
3.895289258998673,1815,1303,499
3.897985097999481,1872,1259,457
3.9006797699985327,1911,1294,482
3.903370191999784,1931,1283,466
3.9060649879993434,1903,1296,486
3.9087579520000872,1711,1279,487
3.9114492909993714,1714,1251,477
3.9141420039995864,1781,1293,501
3.9168377589994634,1842,1264,468
3.919524097998874,1900,1275,471
3.9222245199998724,1922,1295,478
3.9249195249994955,1936,1268,453
3.927610946999266,1770,1298,498
3.9303032019997772,1712,1264,476
3.9329925409983844,1764,1277,494
3.9356826299990644,1830,1293,485
3.9383716759984964,1881,1267,464
3.9410604320000857,1915,1303,486
3.943750769998587,1933,1285,470
3.9473872359994857,1871,1303,497
3.9500948659988353,1731,1285,495
3.9527910799988604,1769,1280,496
3.9554790849997516,1830,1305,496
3.958171506999861,1883,1269,464
3.960867761999907,1917,1297,486
3.963559058998726,1935,1285,466
3.9662515639993217,1887,1299,490
3.9689438189998327,1728,1280,491
3.9716336999990745,1737,1263,480
3.9743269129994587,1803,1304,511
3.977018876999864,1857,1270,466
3.9797089650001,1904,1282,475
3.9824023869987286,1927,1295,478
3.9850935589984147,1936,1277,464
3.9877854809983546,1770,1299,499
3.9904776949988445,1724,1264,484
3.9931706999996095,1770,1283,496
3.995900038999025,1838,1287,487
3.9986033770001086,1890,1272,469
4.001295673999266,1920,1299,486
4.003987720998339,1934,1280,464
4.006727725998644,1843,1301,493
4.009456564999709,1728,1279,484
4.012148403999163,1751,1269,485
4.014839783998468,1818,1317,511
4.017533163998451,1872,1265,461
4.020226127999194,1911,1296,482
4.022950466000111,1933,1295,469
4.0256448879990785,1937,1296,481
4.028357684999719,1705,1283,490
4.031073565000042,1680,1246,475
4.033800236999014,1760,1279,498
4.036496033999356,1831,1264,468
4.039187790000142,1893,1267,471
4.041878585998347,1923,1293,475
4.044569300000148,1937,1271,459
4.0472594299990305,1729,1279,490
4.049953601999732,1611,1222,465
4.052644690998932,1666,1226,471
4.055336153998724,1763,1264,485
4.058031825999933,1839,1230,451
4.0607250399989425,1902,1266,473
4.0634175870000036,1926,1264,455
4.066113383998527,1903,1291,481
4.068807346999165,1744,1280,485
4.07149768599993,1744,1261,479
4.074187524000081,1808,1301,511
4.076881195998794,1859,1273,465
4.0795748269993055,1904,1283,476
4.082282415000009,1927,1296,479
4.084992711999803,1937,1270,462
4.087689508998665,1780,1305,501
4.090380847999768,1733,1269,481
4.0930710609991365,1778,1286,496
4.095764982999754,1840,1296,486
4.098460362998594,1887,1277,467
4.1011532849988726,1920,1302,485
4.1038441239998065,1933,1286,466
4.106538504000127,1846,1300,496
4.109231717999137,1705,1273,487
4.1119238899991615,1728,1261,481
4.114618519999567,1801,1305,511
4.117313191998619,1859,1262,464
4.120003946998622,1905,1285,478
4.122698076998859,1931,1292,469
4.125389498998629,1938,1284,473
4.128081337999902,1739,1294,494
4.130777800999567,1712,1255,478
4.1334728069996345,1770,1281,496
4.136163311999553,1837,1280,483
4.138853649999874,1890,1268,469
4.141545696998946,1920,1296,483
4.1442359529992245,1935,1279,462
4.146965374999127,1808,1296,493
4.149667421999766,1700,1264,482
4.152363260000129,1737,1262,484
4.155053681999561,1806,1307,506
4.157748562000052,1870,1255,459
4.160446067999146,1910,1285,478
4.163137947998621,1934,1286,470
4.165832577999026,1929,1296,480
4.168525166998734,1719,1281,493
4.171217254999647,1712,1253,474
4.173910801999227,1776,1286,497
4.176602181998533,1840,1270,468
4.179292312999678,1894,1277,470
4.181985609999174,1926,1296,481
4.184676614999262,1935,1271,455
4.187365661999138,1767,1296,496
4.190060458999142,1693,1255,476
4.192753421999441,1744,1263,485
4.195442510999783,1813,1294,496
4.1981795159990725,1872,1260,464
4.200888020999628,1912,1291,481
4.203579567998531,1931,1281,464
4.206271239998387,1877,1296,488
4.20896766199985,1698,1269,486
4.211656292000043,1712,1248,476
4.214349922998736,1786,1293,506
4.217042594998929,1846,1261,463
4.21973293299925,1904,1275,473
4.222426271999211,1929,1289,477
4.225121401999786,1936,1274,464
4.2278146159987955,1743,1294,496
4.230509162000089,1693,1249,474
4.233202208999501,1753,1268,493
4.235892380998848,1823,1274,478
4.238582177998978,1882,1264,464
4.241274432999489,1920,1295,483
4.243964229999619,1936,1275,462
4.246656568999242,1827,1294,492
4.249365948999184,1680,1261,483
4.252060453998638,1712,1248,479
4.25475625099898,1791,1296,511
4.257455172999471,1854,1248,459
4.2601493040001515,1905,1279,478
4.262843141999838,1930,1282,474
4.265535771999566,1938,1287,480
4.268226068999866,1712,1281,486
4.270947199998773,1686,1247,469
4.273643662998438,1759,1277,496
4.276362001999587,1827,1264,472
4.279054464999717,1879,1264,470
4.281748303999848,1920,1292,485
4.284471308999855,1935,1270,457
4.28716427299878,1786,1293,496
4.289857777999714,1692,1255,477
4.292554241999824,1738,1260,481
4.2952457049996156,1810,1296,497
4.297938126999725,1871,1253,458
4.3006309239990514,1911,1287,481
4.303323053998611,1934,1281,466
4.306017434999376,1909,1297,485
4.308710022998639,1715,1279,489
4.311399528000038,1718,1254,478
4.314091700000063,1787,1296,506
4.31678508099867,1847,1267,467
4.3194762939983775,1902,1280,477
4.322171715999502,1927,1295,478
4.324864470998364,1936,1269,458
4.327556017999086,1756,1296,497
4.33024868999928,1696,1258,477
4.33294061199922,1746,1265,491
4.335631741998441,1825,1290,490
4.338321372999417,1879,1264,464
4.341016753000076,1916,1295,482
4.343710049999572,1931,1280,465
4.346402971999851,1863,1295,493
4.349093184999219,1707,1273,485
4.351784273998419,1725,1252,479
4.354475445999924,1791,1296,508
4.357170617999145,1855,1262,464
4.359861164999529,1906,1281,477
4.362553877999744,1927,1291,477
4.365248841999346,1936,1279,473
4.367940304999138,1749,1295,498
4.370635143999607,1712,1255,474
4.373327273999166,1769,1280,497
4.376016570999127,1827,1280,482
4.378710159999173,1889,1267,466
4.381404247998944,1921,1296,486
4.384098002999963,1933,1280,464
4.386791966999226,1831,1296,485
4.389485305999187,1706,1266,481
4.39217626899881,1738,1261,485
4.394869648998792,1808,1311,511
4.397563820999494,1867,1263,463
4.400317701998574,1906,1291,479
4.403022290000081,1931,1285,473
4.405715836999661,1936,1296,484
4.408410008998544,1721,1289,494
4.411100888999499,1713,1253,479
4.41379551999853,1776,1286,500
4.416491983000014,1840,1270,471
4.41918444699877,1894,1277,467
4.4218775350000215,1923,1296,471
4.424573206999412,1936,1273,459
4.427265628999521,1782,1296,496
4.429960634999588,1703,1259,477
4.432652472998598,1745,1264,487
4.435344894998707,1819,1297,496
4.438039983999261,1872,1263,461
4.440733780998926,1917,1292,482
4.443425451998337,1929,1280,469
4.446117998999398,1898,1298,486
4.448827462998452,1711,1279,490
4.451523009998709,1718,1254,476
4.454219139999623,1786,1296,503
4.456912311999986,1849,1264,465
4.459602691998953,1904,1280,475
4.4622961139994,1928,1293,475
4.464989618998516,1938,1265,460
4.467682165999577,1760,1296,497
4.470378046999031,1702,1258,478
4.473071634998632,1758,1269,487
4.475762514999587,1827,1287,483
4.478458686999147,1884,1266,464
4.481156234000082,1919,1296,482
4.483847739998964,1935,1280,464
4.4865434109997295,1850,1298,493
4.489239999998972,1713,1277,487
4.491926130000138,1738,1261,483
4.494621051999275,1807,1310,511
4.49731939099911,1861,1263,464
4.500012520999007,1906,1286,480
4.5027073599994765,1933,1290,475
4.505401239999628,1939,1285,476
4.508091952999166,1747,1296,497
4.510791916998642,1726,1262,480
4.513490338998963,1777,1290,497
4.516184885998882,1839,1283,482
4.518878140999732,1895,1273,465
4.521575604998361,1920,1299,485
4.524295234999954,1936,1280,463
4.526990406999175,1812,1296,496
4.529685995999898,1707,1265,481
4.532447458999741,1744,1264,490
4.535158339998816,1809,1311,507
4.537853469999391,1872,1255,458
4.540546516998802,1915,1290,477
4.543239979999271,1932,1284,467
4.545931901999211,1920,1299,486
4.5486257819993625,1721,1285,493
4.551315537999471,1721,1255,476
4.55400687600013,1785,1295,506
4.5566975900001125,1845,1270,467
4.559384719999798,1901,1279,471
4.56207380900014,1924,1296,478
4.564765271999931,1937,1269,458
4.567455777998475,1785,1301,496
4.5701466989994515,1719,1264,480
4.572842370998842,1765,1277,491
4.575534084999163,1831,1296,490
4.578227298999991,1882,1269,464
4.580918553998345,1915,1298,480
4.583608016999278,1933,1287,464
4.586298188998626,1875,1299,490
4.588986777998798,1709,1277,487
4.591676574998928,1726,1257,477
4.594366747000095,1792,1298,507
4.597055543999886,1854,1264,464
4.59974684000008,1903,1280,471
4.602473928998734,1929,1293,475
4.605165642999054,1937,1274,464
4.607856355998592,1750,1296,496
4.610546277999674,1707,1260,476
4.613235574999635,1763,1279,493
4.615923329998623,1830,1280,482
4.618612876998668,1887,1264,464
4.621302090999961,1918,1296,483
4.623990303998653,1936,1280,465
4.626678975999312,1837,1297,491
4.629368356998384,1706,1268,481
4.632055944999593,1728,1259,479
4.63474907499949,1797,1306,511
4.637436580998838,1859,1262,463
4.64012541899865,1910,1285,475
4.642813048998505,1930,1290,469
4.645501304999925,1941,1290,476
4.648198392998893,1734,1294,496
4.6508911900000385,1705,1255,469
4.653582986999027,1770,1281,496
4.656303783998737,1838,1273,476
4.658997705999354,1889,1267,464
4.661689419999675,1923,1296,481
4.664381382999636,1937,1275,462
4.667069762999745,1799,1297,496
4.669759143998817,1705,1264,480
4.672450689999096,1744,1264,487
4.67514019599912,1813,1305,507
4.677829909000138,1872,1259,457
4.6805162059990835,1911,1291,481
4.68320475299879,1931,1288,467
4.685895549999259,1926,1302,485
4.688586263999241,1738,1291,491
4.691273476999413,1732,1264,480
4.693963231999078,1791,1296,503
4.696651653999652,1853,1274,473
4.699341159999676,1903,1281,474
4.702029580999806,1920,1297,480
4.704720961999556,1936,1272,461
4.707411133998903,1777,1296,497
4.710102721999647,1707,1264,480
4.712794351999037,1753,1269,487
4.715478315998553,1825,1298,495
4.718167570999867,1875,1264,463
4.72085961799894,1919,1296,483
4.723547331999725,1934,1283,465
4.726239419998819,1886,1299,490
4.728928634000113,1721,1281,490
4.731617430999904,1730,1259,477
4.734304227999019,1798,1296,506
4.736990065999635,1856,1267,467
4.739678821999405,1904,1282,474
4.7423671599990485,1925,1296,479
4.74505728999975,1937,1274,464
4.747746920998907,1763,1298,498
4.7504339259994595,1712,1263,480
4.7531237229995895,1769,1280,494
4.755812352999783,1834,1285,484
4.7585020669994265,1885,1269,465
4.761192737998499,1921,1298,483
4.763881743998354,1936,1283,464
4.766570915999182,1835,1296,492
4.769279254000139,1676,1263,482
4.771970258998408,1701,1239,477
4.7746600979990035,1782,1295,509
4.7773488120001275,1853,1249,463
4.780035733998375,1903,1280,479
4.782724238999435,1935,1287,469
4.7854143690001365,1939,1283,469
4.7881010829987645,1663,1267,489
4.790789212998789,1617,1217,463
4.793478259998665,1698,1239,485
4.796164431998477,1789,1237,466
4.798853478998353,1871,1238,459
4.80154335899897,1911,1275,473
4.8042936969995935,1933,1263,454
4.806986702998984,1838,1294,491
4.809677332999854,1744,1270,483
4.812366671998461,1776,1274,490
4.815054634998887,1830,1324,511
4.8177426399997785,1882,1267,464
4.82043172900012,1918,1296,480
4.823117900999932,1936,1292,469
4.825807863999216,1933,1306,487
4.8284972029996425,1737,1295,493
4.831185832999836,1730,1265,479
4.833885337999163,1792,1297,499
4.836573426999166,1852,1279,478
4.839262306999444,1902,1280,471
4.84195185399949,1930,1296,481
4.844639442999323,1936,1274,459
4.847328572999686,1775,1297,496
4.850016661999689,1692,1260,478
4.852707166999608,1744,1264,490
4.855393254998489,1815,1297,496
4.8580820520001,1874,1262,464
4.860769140999764,1914,1294,483
4.86345760399854,1935,1283,468
4.866145942998628,1897,1298,487
4.868834406999667,1711,1275,489
4.87152111999967,1714,1251,476
4.8742091249987425,1785,1295,505
4.876897380998344,1845,1264,468
4.879583052999806,1899,1278,477
4.882271265998497,1926,1293,477
4.884959645998606,1937,1265,455
4.88764723499844,1759,1296,497
4.890334947998781,1706,1255,481
4.893024369999694,1747,1271,493
4.895712251000077,1828,1287,485
4.898403547998896,1882,1265,465
4.901092802998392,1920,1296,485
4.903781641000023,1935,1282,466
4.906471062999117,1857,1296,494
4.909158693999416,1706,1270,487
4.911847781999313,1715,1254,479
4.914537286998893,1792,1298,509
4.917224793000059,1857,1260,463
4.91991138099911,1905,1283,477
4.922600052999769,1929,1289,477
4.925287682999624,1939,1280,470
4.92797702200005,1730,1287,496
4.930667234999419,1695,1249,477
4.933355866000056,1751,1273,493
4.936043745999996,1822,1274,481
4.938731250998899,1886,1265,468
4.941422130999854,1921,1295,484
4.944105636999666,1920,1264,453
4.946795183999711,1824,1294,495
4.949486854999122,1695,1263,481
4.952175526999781,1727,1255,480
4.9548647409992554,1799,1303,510
4.95757291299924,1863,1258,462
4.960308876999989,1907,1286,475
4.963006881998808,1931,1286,471
4.965704178999658,1936,1296,482
4.9683984339990275,1711,1280,491
4.9710920639990945,1696,1245,477
4.973786235999796,1763,1280,498
4.976479115999609,1833,1264,471
4.979170037999211,1893,1269,470
4.981864626999595,1925,1294,476
4.984557631998541,1937,1270,462
4.9872483869985444,1767,1291,494
4.989941933999944,1680,1245,474
4.992635355998573,1730,1255,484
4.995326277999993,1808,1293,499
4.998017824998897,1861,1253,463
5.000709954998456,1914,1287,479
5.003399293998882,1934,1280,464
5.006117465998614,1902,1297,487
5.0089175129996875,1703,1275,489
5.011689267999827,1711,1249,476
5.014437814999837,1786,1292,508
5.017177320998599,1840,1249,457
5.01990936799848,1904,1280,477
5.022645747998467,1924,1291,474
5.025385586999619,1936,1281,469
5.028119591999712,1728,1290,496
5.030855888999213,1699,1248,474
5.033591768999031,1760,1274,496
5.036391816000105,1829,1269,475
5.039148404999651,1883,1266,467
5.041887661000146,1921,1295,483
5.044621123999605,1934,1269,457
5.047353170999486,1773,1286,496
5.050084051999875,1680,1250,476
5.052819848999206,1741,1258,486
5.055552436999278,1814,1285,491
5.058286858999054,1873,1257,461
5.061023864998788,1905,1287,481
5.063755660999959,1935,1278,464
5.06649195799946,1861,1296,490
5.069227254998623,1707,1268,482
5.071964343998843,1725,1255,478
5.074702557998535,1798,1302,511
5.0774357709997275,1862,1260,463
5.080167526999503,1897,1274,470
5.082902782000019,1929,1290,475
5.085644703998696,1938,1292,479
5.088381208999635,1727,1281,487
5.0911641319999035,1709,1241,464
5.093910511999638,1776,1277,489
5.09664976699969,1840,1261,461
5.099381063999317,1893,1266,461
5.102117944999918,1922,1291,466
5.104858032998891,1935,1264,445
5.107593663999069,1751,1287,487
5.110335168999882,1682,1246,464
5.113071340998431,1741,1261,479
5.115804555000068,1814,1274,471
5.1185420179990615,1873,1261,454
5.12128252399998,1911,1291,473
5.124015986999439,1933,1271,455
5.126751367999532,1826,1290,479
5.129486747999181,1694,1258,467
5.132217211999887,1723,1247,465
5.134994799998822,1797,1298,497
5.137735096999677,1858,1247,448
5.1404832279986294,1905,1279,468
5.143221274998723,1927,1278,463
5.145960321999155,1919,1290,474
5.148694576999333,1706,1271,479
5.1514267069997,1702,1242,467
5.15415892099918,1773,1281,496
5.156895217998681,1841,1257,459
5.159629140000106,1893,1269,463
5.162365270000009,1921,1283,465
5.165116275999026,1931,1264,448
5.167868488999375,1739,1283,487
5.170639744999789,1685,1241,464
5.173382999999376,1746,1264,486
5.17611679699985,1817,1264,467
5.178856051999901,1877,1260,456
5.18160109999917,1917,1283,469
5.184386396998889,1930,1265,448
5.187123484998665,1793,1283,478
5.189859865999097,1687,1249,465
5.1926131209984305,1731,1251,475
5.1953501680000045,1806,1288,488
5.198088047998681,1856,1249,448
5.200830136998775,1904,1280,467
5.203565516998424,1926,1270,454
5.206824398999743,1873,1285,471
5.209541028998501,1695,1264,471
5.21222970099916,1720,1249,470
5.214959539998745,1794,1296,502
5.217655544998706,1856,1245,449
5.220349966999493,1901,1278,467
5.223042513998735,1919,1280,462
5.225738185999944,1925,1287,471
5.228427023999757,1712,1277,475
5.231117403998724,1700,1243,463
5.233810284998981,1766,1277,489
5.236501997998857,1831,1262,459
5.2391937949996645,1883,1264,461
5.241891591998865,1917,1286,465
5.244585930999165,1927,1264,448
5.247278060998724,1797,1296,486
5.249968523999996,1717,1261,467
5.252681654999833,1755,1265,478
5.2553767429999425,1820,1296,486
5.258069415000136,1869,1259,450
5.260759961998701,1905,1286,469
5.263453633999234,1923,1278,456
5.266148097998666,1889,1293,475
5.268839519998437,1712,1273,480
5.271530524998525,1714,1249,467
5.274222821999501,1782,1292,495
5.276915493999695,1840,1262,454
5.279605873998662,1890,1270,464
5.282299462000083,1915,1283,466
5.284992550999959,1928,1262,448
5.287683389999074,1753,1290,489
5.290377519999311,1701,1249,466
5.293074149998574,1747,1264,482
5.295769113999995,1818,1278,474
5.298464993999005,1872,1259,453
5.301158623999072,1907,1287,467
5.303848296000069,1922,1270,450
5.306542759999502,1841,1290,480
5.3092358899994,1695,1262,471
5.31192731199917,1716,1245,464
5.314620858998751,1789,1292,496
5.317316905999178,1845,1249,450
5.320007577998695,1890,1275,466
5.3227002499988885,1917,1279,464
5.325398504999612,1924,1275,463
5.328093967998939,1729,1282,487
5.330796806998478,1698,1243,464
5.333491020999645,1758,1271,486
5.336184775998845,1821,1264,466
5.338878447999377,1874,1258,453
5.341587453000102,1908,1286,465
5.344320541998968,1922,1264,449
5.347017213998697,1791,1279,478
5.349709843998426,1680,1249,467
5.3524026819995925,1719,1246,471
5.35508806299913,1794,1294,496
5.35778748499979,1852,1245,448
5.360487239999202,1898,1275,465
5.363180827998804,1919,1274,458
5.3658757919984055,1911,1285,464
5.368569005999234,1699,1269,475
5.3712558439983695,1693,1235,461
5.373952307998479,1760,1273,489
5.376647770999625,1827,1251,458
5.379337734999353,1881,1263,459
5.382030614999167,1906,1281,468
5.3847239119986625,1922,1258,445
5.387414250999427,1751,1280,486
5.390107172999706,1676,1241,464
5.392805760999181,1726,1247,473
5.395496432998698,1800,1277,482
5.398189604999061,1859,1243,449
5.400882693998938,1902,1279,467
5.403573323999808,1918,1267,454
5.406266536998373,1870,1284,473
5.410969254999145,1694,1261,474
5.413669551999192,1754,1275,496
5.416364098999111,1817,1263,463
5.419053562000045,1874,1261,455
5.421746733998589,1907,1282,467
5.424441989000115,1921,1263,448
5.427132119999442,1782,1283,483
5.4298237079983664,1686,1248,465
5.432514338999681,1726,1249,470
5.435202843998923,1797,1290,490
5.437892431998989,1854,1246,445
5.440579645999605,1897,1277,464
5.443269317998784,1919,1271,455
5.445962406000035,1904,1283,473
5.4486563699992985,1708,1267,477
5.451345833998857,1703,1239,464
5.454040505999728,1766,1279,491
5.456731385998864,1828,1253,461
5.459424765998847,1879,1264,464
5.462115062999146,1911,1281,467
5.464806609999869,1920,1258,443
5.467493739999554,1759,1285,489
5.470185661999494,1687,1243,464
5.472874625998884,1741,1257,470
5.475563255999077,1807,1280,478
5.478251927999736,1859,1250,451
5.4809428909993585,1898,1278,467
5.48363114699896,1917,1269,454
5.486319526999068,1859,1286,471
5.489011656998628,1686,1262,469
5.491701828999794,1705,1239,464
5.494392167000115,1776,1283,494
5.497080006000033,1837,1248,449
5.4997680529995705,1886,1265,462
5.5024558499990235,1912,1280,463
5.505143854999915,1920,1263,455
5.507831859998987,1695,1269,480
5.510525531999519,1639,1222,456
5.513215828999819,1709,1239,478
5.515902292998362,1789,1249,464
5.518592464999529,1859,1239,448
5.521283969999786,1899,1274,464
5.52397393299907,1915,1259,446
5.526663188999009,1796,1270,470
5.5293543609986955,1626,1231,464
5.532040407999375,1657,1213,459
5.534730828998363,1744,1263,491
5.537419792999572,1823,1219,440
5.540109631998348,1867,1241,448
5.542798219999895,1907,1262,458
5.545485808999729,1920,1264,459
5.5481700639993505,1744,1279,482
5.550862652999058,1718,1246,461
5.553555365999273,1773,1277,487
5.556242995999128,1827,1269,466
5.558962376999261,1876,1263,457
5.561654006998651,1907,1287,467
5.564345303999289,1919,1265,448
5.567032975999609,1792,1283,483
5.569722313999591,1695,1250,469
5.572412402998452,1726,1248,473
5.575100740999915,1796,1295,495
5.577791454999897,1851,1246,446
5.580478877000132,1891,1278,465
5.5831692989995645,1915,1273,458
5.5858593869998,1907,1284,470
5.58854805899864,1702,1266,480
5.591238064998834,1695,1237,463
5.5939284859996405,1759,1267,490
5.596616907998396,1820,1251,459
5.599305038998864,1873,1260,459
5.601995793998867,1905,1280,467
5.604686465998384,1918,1257,443
5.607373512999402,1757,1280,484
5.610066225999617,1671,1238,464
5.6127577729985205,1718,1245,469
5.61544677799975,1795,1276,483
5.618137325000134,1852,1238,448
5.620826163998572,1893,1277,466
5.6235145020000346,1915,1267,453
5.626206633000038,1872,1281,467
5.6288965129988355,1681,1259,471
5.631583892998606,1690,1232,463
5.6342742729993915,1761,1273,493
5.6369640289995,1822,1242,451
5.639650950999567,1878,1261,462
5.6423492889989575,1906,1276,464
5.645038668999405,1917,1251,448
5.647729840999091,1727,1275,481
5.650428054999793,1671,1232,462
5.653119726999648,1728,1249,477
5.655812106999292,1803,1263,467
5.658500361998449,1858,1246,450
5.66119186799915,1898,1278,467
5.663881622998815,1913,1264,447
5.666571169998861,1817,1278,475
5.669261091999942,1661,1243,465
5.67195017999984,1682,1225,459
5.674640601999272,1761,1273,491
5.677330856999106,1828,1233,445
5.680020153999067,1875,1261,462
5.682710742999916,1906,1267,463
5.685399373000109,1920,1264,461
5.6880870449986105,1697,1266,477
5.690776174998973,1663,1226,455
5.693477596998491,1728,1251,479
5.696165726998515,1799,1249,462
5.69885577399873,1863,1244,448
5.701543612998648,1901,1274,465
5.704231992998757,1915,1258,447
5.7069521229987,1783,1271,467
5.709647669998958,1657,1235,467
5.712360050998541,1694,1231,463
5.71504955599994,1770,1280,492
5.7177408110001124,1840,1243,457
5.72043014999872,1890,1275,474
5.723118571999294,1910,1271,464
5.725808243998472,1910,1285,478
5.728497164998771,1686,1267,485
5.731184128999303,1680,1233,470
5.733873633998883,1749,1265,493
5.736561138999605,1814,1249,464
5.739245435999692,1874,1258,464
5.741939982999611,1904,1276,471
5.744631029998345,1920,1259,448
5.747320993999892,1747,1279,485
5.750008915998478,1661,1234,466
5.752697337999052,1711,1239,478
5.75538650999988,1789,1278,490
5.7580755979997775,1853,1237,451
5.76076631199976,1899,1275,475
5.763454191999699,1917,1267,463
5.766144404999068,1882,1282,478
5.768834160999177,1680,1261,479
5.771522332999666,1683,1232,469
5.774211004998506,1759,1274,496
5.77690238499963,1823,1248,464
5.7795913069985545,1878,1264,469
5.782280519999404,1907,1277,472
5.784969025999089,1920,1254,451
5.787656738999431,1734,1281,495
5.790343493999899,1670,1236,469
5.793035790999056,1725,1253,486
5.795724462999715,1806,1269,481
5.7984148019986606,1861,1249,459
5.801105848999214,1887,1270,466
5.803794728999492,1917,1266,461
5.806485650999093,1839,1284,483
5.809216405999905,1678,1254,475
5.811908535999464,1694,1233,464
5.814601499998389,1773,1283,503
5.817291379999006,1837,1242,458
5.81997980199958,1887,1266,469
5.8235163089993875,1914,1277,465
5.826215313998546,1923,1270,470
5.82890556899838,1681,1264,490
5.831593324999631,1694,1239,470
5.834281704999739,1766,1280,500
5.836971709999489,1833,1251,463
5.8396607149988995,1884,1265,466
5.842354053998861,1910,1280,471
5.845041683998716,1921,1255,458
5.847732147998613,1741,1283,494
5.850421444998574,1683,1241,473
5.853111407999677,1741,1261,490
5.855803038999511,1810,1271,478
5.858491793998837,1866,1255,463
5.861184256998968,1904,1286,477
5.863872345998971,1922,1274,460
5.866562184999566,1837,1287,489
5.869253189999654,1684,1259,478
5.871942652998769,1708,1235,471
5.874634241999956,1782,1290,506
5.87732287200015,1843,1248,459
5.880011919000026,1886,1269,473
5.882703423998464,1918,1280,469
5.885393095999461,1927,1274,469
5.888081725999655,1719,1281,496
5.890770106998389,1683,1241,472
5.893462736999936,1748,1268,493
5.896150783999474,1813,1264,477
5.898841288999392,1875,1259,464
5.901529460999882,1909,1289,479
5.904220840999187,1927,1267,461
5.906942263000019,1801,1280,480
5.909638351999092,1681,1253,475
5.912350564998633,1717,1247,474
5.9150406119988475,1781,1296,509
5.91773324299902,1854,1246,458
5.920422455999869,1901,1278,475
5.923109419998582,1920,1278,465
5.925798674999896,1920,1287,479
5.9284872640000685,1706,1275,487
5.931176184998549,1699,1242,475
5.933866065999609,1760,1275,496
5.936557278999317,1826,1262,466
5.93924536799932,1882,1265,467
5.9419359149997035,1917,1283,475
5.944622961998903,1927,1264,458
5.947311717000048,1776,1291,496
5.9500000969983375,1693,1250,479
5.952689144000033,1739,1259,483
5.955379190998428,1808,1295,495
5.958069029999024,1867,1255,455
5.960760575999302,1904,1288,477
5.963447622998501,1921,1279,464
5.966138628999033,1890,1295,480
5.96883013399929,1699,1271,485
5.971522013998765,1707,1243,473
5.974211893999382,1776,1283,498
5.9768999829993845,1840,1261,464
5.979588320999028,1888,1270,471
5.982277993000025,1920,1287,474
5.984967331998632,1930,1260,451
5.9876556290000735,1749,1290,497
5.990343716999632,1685,1248,475
5.9930341389990645,1744,1264,489
5.995722144998581,1810,1279,483
5.998408941999514,1871,1259,461
6.0011599469999055,1907,1290,484
6.003886493999744,1923,1276,464
6.006585373999769,1839,1289,487
6.009374587998536,1689,1255,475
6.012107884998841,1714,1245,478
6.014802889998464,1791,1296,510
6.017495936999694,1853,1248,461
6.020190233999529,1898,1278,477
6.022888863999469,1921,1280,466
6.0255831189988385,1934,1282,475
6.028312458000073,1719,1282,495
6.031020004998936,1697,1246,474
6.033710426998368,1765,1277,496
6.036405390999789,1826,1264,471
6.03909918699901,1886,1264,468
6.041792233998422,1914,1291,479
6.044549655998708,1926,1267,458
6.047323078999398,1786,1290,495
6.050056791998941,1696,1255,475
6.0527850889993715,1744,1262,488
6.055486718998509,1811,1291,495
6.058179099998597,1868,1254,458
6.060872021998875,1909,1287,476
6.06357890199979,1926,1278,463
6.066275739998673,1878,1294,485
6.068970370999523,1710,1270,483
6.071674042999803,1715,1247,474
6.074372964998474,1785,1293,503
6.077067053000064,1843,1262,463
6.079764475000047,1894,1277,474
6.082475563998742,1920,1288,475
6.085177068998746,1933,1269,464
6.087881907998963,1743,1289,493
6.090624370999649,1694,1250,477
6.093390959998942,1754,1269,494
6.096114506999584,1818,1272,480
6.098814470999059,1882,1264,464
6.10153285099841,1915,1291,481
6.1042333979985415,1927,1271,460
6.106966610999734,1808,1285,483
6.109676366999338,1697,1261,478
6.11237216399968,1730,1251,475
6.115062835999197,1805,1306,505
6.117754423999941,1859,1254,459
6.120451345999754,1905,1285,477
6.12314280999999,1923,1281,468
6.125836231998619,1925,1295,480
6.128531237000061,1725,1281,492
6.131228074998944,1715,1250,475
6.13392166399899,1776,1285,498
6.136616168998444,1840,1265,471
6.1393137159993785,1891,1271,468
6.14202734599894,1918,1293,478
6.144735392999792,1930,1268,459
6.147432606998336,1775,1296,496
6.1501273209996725,1707,1259,478
6.152825491999465,1751,1266,486
6.155518788998961,1819,1296,491
6.158260669999436,1872,1263,462
6.1609634249998635,1907,1295,479
6.163658346999,1926,1279,465
6.166350976998729,1872,1295,487
6.169040523998774,1712,1275,489
6.171728820998396,1727,1255,479
6.174422575999415,1793,1296,510
6.177116122998996,1850,1264,464
6.179805002999274,1902,1280,475
6.182497299998431,1920,1293,478
6.185188305998963,1925,1271,464
6.187876560999939,1757,1296,496
6.190566190998652,1714,1260,481
6.193256945998655,1767,1279,496
6.195946201998595,1826,1280,483
6.198636914999952,1882,1267,466
6.201325628999257,1915,1296,484
6.204016883999429,1922,1278,465
6.20670934699956,1840,1296,493
6.209695727999133,1712,1269,485
6.212399983998694,1741,1262,489
6.215023363998625,1811,1300,505
6.217598534998615,1870,1263,466
6.220171748998837,1905,1294,481
6.222745170000053,1928,1293,471
6.2253186339985405,1891,1293,479
6.227890180000031,1713,1285,495
6.230463268999301,1677,1239,471
6.2330359399984445,1739,1261,491
6.235608778999449,1810,1276,480
6.238181991999227,1872,1255,466
6.2407550389998505,1911,1287,481
6.243327918999057,1925,1279,466
6.245909923998624,1895,1296,489
6.24848888699853,1677,1264,489
6.2510623919988575,1669,1231,467
6.253643438998552,1742,1265,495
6.256217985999683,1813,1251,469
6.2587903659987205,1876,1253,464
6.261362620998625,1911,1281,479
6.263935666998805,1926,1269,463
6.266508921999048,1856,1296,489
6.269083260998741,1747,1280,486
6.27165680699909,1711,1265,483
6.27423102099965,1812,1309,510
6.27680485899873,1863,1276,471
6.279377196999121,1902,1289,480
6.281951368999216,1926,1299,485
6.284524873999544,1934,1275,460
6.287097128999449,1807,1307,499
6.289670217998719,1729,1275,485
6.292243597999914,1774,1275,492
6.294831852999778,1825,1322,511
6.297406482999577,1872,1267,466
6.299980195999524,1907,1295,486
6.302554033998604,1925,1296,478
6.305127622999862,1932,1283,475
6.307700252998984,1759,1299,496
6.310273757999312,1719,1263,479
6.31284780399983,1756,1277,495
6.315420433998952,1825,1296,495
6.317992272999618,1874,1264,464
6.320565193998846,1907,1296,487
6.323137323999617,1931,1290,474
6.325710620998507,1925,1302,489
6.328294750999703,1725,1287,494
6.3308686729997135,1712,1253,478
6.33344367799873,1775,1281,496
6.336016932998973,1832,1273,478
6.338590979999935,1882,1266,465
6.341163692999544,1915,1296,489
6.343736531000104,1930,1279,464
6.346309244998338,1856,1297,491
6.348881500000061,1714,1277,490
6.351454295998337,1727,1255,479
6.354026884999257,1788,1295,503
6.3565997229998175,1843,1270,474
6.359172560998559,1897,1278,474
6.361745857999267,1920,1296,486
6.364321070999722,1935,1274,463
6.366893825999796,1795,1294,496
6.369468122999024,1696,1260,480
6.37204050299988,1728,1253,479
6.374612965999404,1793,1298,509
6.37718692999988,1854,1258,462
6.379759725999975,1903,1275,475
6.382333314999414,1923,1291,479
6.384906819999742,1933,1268,465
6.3874784909985465,1750,1292,496
6.390051787999255,1691,1250,476
6.392624917998546,1739,1261,485
6.395196297999064,1808,1296,497
6.397770011999455,1867,1257,463
6.4003439329990215,1905,1293,481
6.402916312999878,1930,1291,473
6.405489817998387,1936,1296,478
6.408061947999158,1713,1283,490
6.410635036998428,1684,1239,467
6.413209541999095,1745,1265,487
6.415781962999972,1812,1267,475
6.418354884999644,1872,1263,465
6.420927847999337,1904,1281,470
6.423500769999009,1934,1281,469
6.426074857999993,1879,1296,489
6.428649571998903,1693,1267,490
6.431222451999929,1695,1237,473
6.43379578999884,1765,1277,499
6.436369669998385,1828,1264,474
6.438942674998543,1886,1266,469
6.4415158049996535,1919,1296,485
6.444087934998606,1933,1274,461
6.446668148999379,1815,1289,488
6.44924127899867,1687,1257,480
6.451814533998913,1713,1239,478
6.454387413999939,1785,1290,506
6.4569600019985955,1845,1258,466
6.459532298998965,1894,1279,477
6.46210455399887,1921,1295,480
6.464677808999113,1934,1267,457
6.467249563998848,1761,1291,496
6.469822776998626,1681,1245,473
6.4723957819987845,1724,1248,478
6.47496753699852,1794,1295,501
6.477540791998763,1856,1254,462
6.4801122969984135,1904,1286,481
6.4826858439992066,1930,1292,470
6.485258723998413,1935,1285,474
6.487830644999121,1730,1287,496
6.4904041919999145,1692,1243,472
6.49297807199946,1744,1262,489
6.495551160000105,1815,1280,483
6.498125082000115,1872,1263,467
6.500697961999322,1911,1296,486
6.503269674998592,1932,1287,468
6.505842680999194,1911,1302,493
6.508416935999776,1722,1280,491
6.5109884409994265,1712,1246,475
6.51356169599967,1776,1280,502
6.516133741999511,1831,1271,479
6.518706705999648,1885,1270,466
6.521283918998961,1915,1295,480
6.523910506999528,1931,1282,464
6.5265380129985715,1841,1295,489
6.529166058999181,1699,1263,481
6.531757438999193,1719,1245,479
6.5343305689984845,1783,1292,506
6.536903865999193,1845,1262,467
6.53947545399933,1898,1280,478
6.542048500999954,1921,1296,484
6.544621047998589,1936,1271,458
6.54719338599898,1776,1294,495
6.549765515999752,1697,1250,475
6.552338353998493,1739,1254,481
6.554911776000154,1806,1299,511
6.557484697999826,1861,1261,463
6.560056202999476,1907,1291,482
6.562627457999042,1928,1293,477
6.565200629998799,1935,1283,469
6.567772384998534,1747,1290,496
6.570345180998629,1710,1249,475
6.572917602999951,1758,1265,491
6.575489357999686,1822,1289,489
6.578062987999147,1874,1266,464
6.580635867998353,1915,1301,488
6.5832073309993575,1931,1295,477
6.585779877999812,1920,1301,495
6.588353924998955,1714,1283,492
6.590925762999177,1689,1232,461
6.593498809999801,1763,1277,495
6.596070855999642,1826,1271,481
6.598643652998362,1879,1273,469
6.601225200000044,1917,1299,490
6.603801829998702,1933,1281,468
6.606375042998479,1856,1296,490
6.60894896499849,1710,1269,486
6.611520594999092,1719,1245,471
6.61409380799887,1785,1291,500
6.616666729998542,1845,1266,468
6.619239984998785,1893,1280,475
6.621814114998415,1923,1298,483
6.624387244999525,1934,1265,450
6.626958416998605,1797,1296,497
6.629531712998869,1702,1259,479
6.632103426998583,1732,1253,480
6.634676681998826,1802,1302,511
6.6372512279995135,1858,1263,464
6.639823941999566,1902,1290,483
6.642396862998794,1929,1296,480
6.644969701999798,1936,1277,467
6.647541456999534,1760,1294,496
6.650113169998804,1698,1250,473
6.652684382999723,1744,1261,482
6.655255554998803,1814,1296,498
6.657827601999088,1864,1264,464
6.6603996899993945,1907,1296,485
6.662971902998834,1931,1295,477
6.665544907998992,1935,1298,484
6.668116329999975,1727,1283,495
6.670688501999393,1702,1247,465
6.673261672998706,1759,1270,493
6.6758336369985045,1814,1271,483
6.678406683999128,1875,1267,466
6.680979938999371,1920,1298,490
6.683552401998895,1934,1285,470
6.686127240000133,1883,1299,487
6.688701119999678,1723,1277,485
6.691272958998525,1729,1251,473
6.693845588999466,1777,1289,499
6.696418801999243,1842,1275,473
6.6989906819999305,1894,1281,477
6.701562853999349,1921,1302,490
6.704134775000057,1935,1281,464
6.706708321999031,1818,1295,490
6.709281284998724,1709,1261,482
6.71185312399939,1725,1247,480
6.714425628999379,1798,1296,507
6.716998883999622,1851,1264,468
6.719571054998596,1904,1285,481
6.722144268998818,1924,1297,482
6.724716898999759,1936,1270,456
6.727289444999769,1771,1293,494
6.729866908999611,1697,1253,472
6.732440288998987,1743,1257,482
6.735011835999103,1808,1299,503
6.737585048998881,1867,1262,464
6.740157178999652,1909,1296,483
6.742730016998394,1931,1296,477
6.745302855999398,1939,1290,477
6.747875610999472,1737,1290,496
6.750449156999821,1699,1245,471
6.753021953998541,1747,1265,490
6.755593541998678,1824,1281,487
6.758165006000127,1874,1265,464
6.7607371769991005,1915,1299,491
6.763308765999682,1934,1292,473
6.765879937000136,1915,1304,491
6.768453441998645,1721,1280,490
6.771024988998761,1712,1247,474
6.773597910998433,1771,1280,496
6.776169581999056,1831,1274,479
6.778742795999278,1886,1271,475
6.781317133998527,1921,1301,484
6.783889846999955,1935,1283,463
6.7864633109984425,1846,1295,489
6.789036106998537,1707,1264,481
6.7916078210000705,1718,1245,471
6.794181241999468,1787,1291,507
6.796754372999203,1845,1263,469
6.7993257109992555,1894,1280,476
6.801897923998695,1920,1299,486
6.804471178998938,1937,1277,463
6.807043183998758,1802,1296,496
6.8096159389988316,1710,1261,472
6.812188735999371,1743,1259,482
6.814762448999318,1808,1301,511
6.817336245998376,1867,1264,464
6.819908251000015,1904,1293,489
6.8224796729991795,1932,1296,481
6.825053177999507,1936,1280,469
6.827624765999644,1755,1295,496
6.830197937999401,1706,1250,471
6.832770858998629,1754,1262,487
6.835342863998449,1819,1295,494
6.837914785999601,1870,1264,467
6.840486873999907,1915,1298,487
6.843058170999939,1931,1296,473
6.845631092999611,1934,1302,485
6.8482029309998325,1733,1287,495
6.850775435999822,1714,1249,470
6.853347190999557,1773,1279,496
6.85591882099834,1819,1264,471
6.858489783999175,1881,1274,473
6.861060789999101,1917,1302,491
6.863631752999936,1936,1286,470
6.86620288299855,1882,1299,490
6.868775095999808,1728,1277,486
6.871346600999459,1729,1254,477
6.873919064999427,1778,1280,493
6.876492819999839,1841,1277,475
6.879064074999405,1898,1281,477
6.8816368709995,1921,1306,486
6.884207959999912,1934,1281,464
6.886780172999352,1825,1296,495
6.889359385999342,1712,1264,484
6.891930932999458,1733,1253,476
6.8945040210001025,1806,1299,510
6.8970758599989495,1856,1264,467
6.899646739999298,1904,1293,483
6.902219120000154,1929,1301,483
6.904791124999974,1941,1275,459
6.907363504999012,1744,1291,494
6.909936342999572,1662,1237,470
6.912508097999307,1712,1242,476
6.915080185999614,1792,1285,496
6.917653149999751,1856,1251,459
6.920224987999973,1908,1287,482
6.922797117998925,1929,1291,475
6.925370164999549,1936,1289,478
6.927941795000152,1702,1275,492
6.930514341998787,1650,1225,455
6.933086971999728,1717,1243,474
6.935659101998681,1794,1262,479
6.938231147998522,1868,1253,463
6.940804569998363,1907,1289,481
6.9433769499992195,1933,1280,468
6.945949246999589,1915,1299,487
6.948522959999536,1771,1292,496
6.951095548000012,1766,1265,477
6.953667136998774,1808,1301,509
6.956239224999081,1856,1293,486
6.95882347999941,1900,1290,476
6.961395859998447,1926,1314,491
6.963967989999219,1937,1287,466
6.9665397869994194,1853,1303,495
6.9691121249998105,1734,1279,487
6.971685046999482,1755,1264,475
6.9742583019997255,1808,1306,511
6.976831181998932,1853,1280,477
6.979403227998773,1901,1293,484
6.981975483999122,1926,1307,487
6.984548238999196,1936,1280,462
6.987120284999037,1802,1302,496
6.989693165000062,1722,1265,477
6.99227837899889,1755,1265,483
6.994851383999048,1811,1312,511
6.997424638999291,1870,1266,464
6.999996018999809,1905,1296,489
7.002568356998381,1929,1297,481
7.005141444999026,1936,1286,471
7.007714449999185,1763,1296,497
7.010319496999728,1714,1255,474
7.012913168999148,1761,1271,490
7.01548683999863,1826,1293,491
7.018060136999338,1877,1270,466
7.02063335099956,1918,1302,493
7.023204855999211,1936,1296,475
7.025785068999539,1929,1305,487
7.0283580319992325,1722,1282,485
7.03092991199992,1710,1243,470
7.03350270899864,1766,1273,489
7.036084213999857,1827,1276,477
7.0386583439994865,1885,1275,468
7.04123130699918,1919,1301,488
7.043802895999761,1936,1283,464
7.046375900999919,1860,1296,487
7.04894923899883,1718,1271,485
7.051554910998675,1729,1251,473
7.054157249000127,1793,1295,501
7.0567303789994185,1845,1270,467
7.059302633999323,1900,1283,479
7.061874805998741,1928,1303,489
7.06444731099873,1936,1278,464
7.06702256599965,1798,1297,495
7.069595737999407,1705,1259,476
7.072168200998931,1735,1255,479
7.074741830998391,1807,1303,511
7.07731566899929,1858,1259,466
7.079889757998899,1904,1289,482
7.082463637998444,1931,1296,479
7.085040683999978,1934,1280,467
7.087613480998698,1765,1295,496
7.0901868189994275,1715,1254,475
7.092759157998444,1759,1266,489
7.0953315379993,1824,1297,496
7.0979042509989085,1875,1266,466
7.1004782559994055,1910,1298,487
7.103050635998443,1931,1296,475
7.1056235159994685,1936,1303,486
7.108195520999288,1727,1287,489
7.110768859998643,1702,1243,468
7.113342822998675,1756,1271,496
7.115915536000102,1820,1273,482
7.118488499998421,1879,1267,468
7.121061504998579,1915,1298,487
7.123633260000133,1935,1285,467
7.126206389999425,1877,1298,489
7.128779894999752,1713,1274,486
7.131353524999213,1722,1249,471
7.133927945998948,1783,1289,501
7.136500617998536,1841,1262,464
7.139076456000112,1893,1281,477
7.141652002999763,1922,1302,492
7.144224799998483,1935,1280,464
7.146797929999593,1833,1297,494
7.149371767998673,1727,1273,484
7.151943730999847,1749,1262,486
7.154516736000005,1810,1310,511
7.157088699999804,1863,1270,469
7.159658954999031,1903,1293,481
7.162233959999867,1926,1301,482
7.164806131999285,1935,1275,462
7.167377427998872,1780,1301,496
7.169949474999157,1714,1264,481
7.172521396998491,1758,1269,490
7.175093526999262,1823,1308,509
7.177666697998575,1872,1265,469
7.180238119999558,1909,1297,485
7.182826416999887,1932,1296,483
7.185399504998713,1936,1296,481
7.187971509998533,1755,1297,496
7.190543847998924,1725,1258,478
7.1931178119994,1774,1278,496
7.195691066999643,1835,1288,481
7.198265529999844,1883,1274,470
7.200838742999622,1914,1303,490
7.203410289999738,1930,1293,471
7.205982419998691,1904,1308,490
7.208555382998384,1746,1292,493
7.211128471999473,1743,1264,477
7.213699726999039,1799,1297,505
7.216285023998353,1849,1283,481
7.218857819998448,1893,1282,476
7.221430699999473,1922,1306,489
7.224002621998807,1935,1283,467
7.226575543998479,1851,1304,495
7.229149965000033,1743,1280,487
7.2317230949993245,1757,1265,480
7.234295766998912,1813,1311,511
7.23686906399962,1859,1279,473
7.239441776999229,1904,1293,480
7.242014614999789,1927,1307,487
7.244587661998594,1938,1280,464
7.247159499998816,1808,1309,502
7.249733379998361,1734,1274,481
7.2523058019996824,1767,1275,489
7.254879931999312,1823,1323,527
7.257453270000042,1872,1270,471
7.2600259840000945,1911,1297,485
7.2625980299999355,1930,1298,479
7.265170034999755,1937,1287,474
7.267742123998687,1779,1302,496
7.27031508699838,1738,1267,479
7.272888008999871,1782,1282,496
7.275460055998337,1840,1305,494
7.278032060999976,1884,1277,466
7.280604440999014,1919,1307,487
7.283176570999785,1933,1298,474
7.2857501589987805,1929,1305,493
7.288323371998558,1754,1296,496
7.290896626998801,1743,1266,483
7.2934712569986,1794,1296,502
7.296043345999351,1845,1291,486
7.298617266998917,1891,1281,475
7.301189439000154,1921,1309,488
7.303762193998409,1935,1283,466
7.306334948998483,1874,1305,495
7.308908203998726,1747,1290,496
7.3114805839995824,1756,1270,483
7.314054213999043,1809,1311,510
7.31662688599863,1861,1284,481
7.319199056999423,1903,1289,483
7.321772104000047,1926,1303,487
7.324346276000142,1935,1280,463
7.32692536399918,1810,1291,483
7.329501868998705,1730,1273,487
7.33207420799954,1758,1268,485
7.334646962999614,1815,1318,511
7.337219967999772,1867,1269,465
7.339791430998957,1907,1294,482
7.342364768999687,1926,1297,479
7.344938315998661,1936,1275,465
7.347512570999243,1791,1307,503
7.35008628399919,1742,1273,485
7.3526582889990095,1777,1282,497
7.355230835999464,1835,1315,506
7.357802965998417,1883,1276,465
7.360375470998406,1913,1305,482
7.362946600998839,1935,1298,475
7.3655176060001395,1937,1302,486
7.3680888609997055,1769,1305,499
7.370662366000033,1743,1270,478
7.373236995999832,1791,1295,501
7.375808750999568,1845,1294,487
7.378381505999641,1892,1280,469
7.380955427999652,1920,1306,489
7.383527598998626,1933,1291,470
7.386099812998509,1900,1307,494
7.388674193000043,1755,1296,496
7.391246405999482,1754,1271,483
7.393819619999704,1808,1307,511
7.396392749998995,1856,1289,481
7.398963587998878,1899,1285,477
7.401536092998867,1926,1308,489
7.404107472999385,1936,1284,466
7.406679685998824,1841,1303,491
7.409433941998941,1744,1282,485
7.412010946998635,1767,1275,490
7.414583284999026,1754,1323,511
7.417154497999945,1868,1277,465
7.419725211999321,1906,1296,475
7.422298674999183,1930,1299,478
7.424872513000082,1937,1277,462
7.427443726999627,1802,1311,501
7.430016315000103,1744,1278,486
7.432589236999775,1781,1285,493
7.435161032999531,1840,1322,507
7.437734121998801,1879,1277,466
7.440306959999361,1918,1304,486
7.442879006999647,1931,1294,471
7.445453094998811,1936,1301,482
7.448026516998652,1765,1302,501
7.450599396999678,1743,1270,482
7.453173818999858,1787,1293,496
7.455747614998472,1843,1293,486
7.458320369998546,1888,1279,468
7.4608925839984295,1918,1307,492
7.463464046999434,1935,1293,475
7.466037135000079,1904,1312,496
7.468610598998566,1767,1301,496
7.47118335399864,1770,1279,486
7.473758358999476,1811,1307,509
7.476331613999719,1860,1293,481
7.478903409999475,1901,1289,480
7.481476873999782,1922,1310,487
7.484049378999771,1935,1287,466
7.486623466998935,1855,1307,496
7.489196679998713,1758,1292,493
7.491769309999654,1776,1276,486
7.494342773999961,1824,1323,511
7.496916736999992,1859,1271,463
7.499488533998374,1906,1296,482
7.502061788998617,1930,1307,487
7.504635293998945,1936,1280,461
7.507208590999653,1830,1318,501
7.509782761999304,1767,1285,487
7.512356516999716,1792,1293,495
7.51493085599941,1845,1334,523
7.5175049859990395,1883,1282,465
7.520077490999029,1914,1305,487
7.522650536999208,1931,1301,479
7.5252248759989016,1936,1294,475
7.527797713999462,1793,1313,505
7.530371551998542,1765,1281,489
7.532944431999567,1801,1297,499
7.535516353998901,1847,1313,496
7.538089650999609,1889,1284,470
7.540662738998435,1920,1310,494
7.54323528599889,1936,1298,477
7.545808290999048,1924,1306,490
7.548382461998699,1779,1310,501
7.550955591999809,1773,1283,490
7.553527721998762,1815,1313,509
7.556100435998815,1861,1301,490
7.55867331599984,1903,1290,470
7.561245778999364,1923,1312,489
7.563817783999184,1933,1293,468
7.566389872999935,1874,1315,497
7.568964086000051,1765,1297,496
7.57153738299894,1777,1280,486
7.574111803998676,1826,1323,511
7.57668455899875,1872,1291,473
7.579257272998802,1910,1296,480
7.581830985998749,1921,1311,487
7.584403990998908,1937,1283,463
7.586976453998432,1805,1306,499
7.589549917998738,1712,1271,483
7.592122880998431,1745,1266,489
7.594696010999542,1808,1313,509
7.597269973999573,1863,1264,464
7.599842603998695,1900,1289,483
7.602415567998833,1920,1294,477
7.604989488998399,1927,1272,464
7.607561327999065,1791,1304,501
7.610134457998356,1747,1274,482
7.612708712998938,1791,1287,495
7.615281800999583,1841,1316,496
7.617854305999572,1882,1277,466
7.620427685998948,1919,1303,489
7.622999565999635,1931,1298,475
7.625572820999878,1936,1305,486
7.628144450998661,1807,1321,505
7.631248331999814,1793,1293,490
7.63382758699845,1831,1319,511
7.636402383999666,1874,1303,491
7.638976013999127,1910,1300,482
7.641549643998587,1925,1318,491
7.644122731999232,1936,1292,464
7.646696153999073,1854,1313,496
7.6492724509989785,1765,1296,495
7.651847205999729,1779,1286,493
7.654421960998661,1831,1328,524
7.656995631999962,1873,1286,471
7.659567303999211,1910,1298,481
7.662139433999982,1926,1307,481
7.664711397999781,1936,1280,456
7.667283402999601,1814,1318,502
7.669855573998575,1757,1289,490
7.672428703999685,1790,1291,495
7.675001500998405,1843,1329,511
7.677576005999072,1885,1280,465
7.680147343999124,1916,1303,487
7.6827210989995365,1930,1299,476
7.685293478998574,1936,1296,479
7.687865400999726,1780,1311,509
7.690437905999715,1751,1277,482
7.693011868999747,1797,1295,498
7.695583207998425,1849,1308,496
7.698155712998414,1893,1280,473
7.700728883999545,1918,1310,489
7.703300888999365,1932,1296,473
7.705873602999418,1918,1309,495
7.708448108000084,1758,1299,496
7.711020820999693,1751,1271,485
7.713593700998899,1804,1306,507
7.716165288999036,1853,1294,483
7.718738627998391,1898,1284,473
7.72131163299855,1924,1309,491
7.723890554998434,1936,1287,467
7.7264637680000305,1872,1312,495
7.729036939999787,1765,1296,495
7.7316084029989725,1771,1280,487
7.734181990999787,1825,1322,511
7.736756537999099,1867,1284,474
7.73933016799856,1907,1294,480
7.7419039649994374,1925,1307,486
7.744478220000019,1935,1281,463
7.747049932999289,1809,1309,501
7.749623104999046,1742,1280,486
7.7521948180001345,1773,1280,495
7.754768740000145,1825,1326,528
7.757340910999119,1872,1274,467
7.759912915998939,1898,1283,471
7.76248554599988,1929,1296,480
7.765057634998811,1937,1281,469
7.767630098000154,1779,1307,503
7.770201769999403,1738,1272,486
7.772776275000069,1777,1280,496
7.775348862998726,1838,1311,498
7.7779222019999,1879,1274,469
7.780495039998641,1916,1303,489
7.783066419999159,1932,1296,476
7.785640299998704,1936,1306,485
7.7882125549986085,1761,1301,498
7.790784934999465,1751,1270,481
7.7933581069992215,1795,1297,501
7.795929777999845,1851,1295,487
7.7985027830000035,1891,1281,470
7.801076204999845,1920,1307,490
7.803649084999051,1934,1290,467
7.806223464998766,1877,1309,495
7.808797302999665,1752,1293,495
7.811368849999781,1756,1273,482
7.81394214699867,1810,1312,511
7.816515401998913,1857,1286,480
7.8190879479989235,1903,1289,478
7.82166111999868,1925,1308,487
7.824233374998585,1936,1281,464
7.826806712999314,1829,1304,498
7.829380176999621,1738,1280,490
7.831951639998806,1761,1273,487
7.834524311998393,1822,1317,511
7.83709881699906,1870,1275,469
7.839670988998478,1904,1295,480
7.842244326999207,1926,1301,483
7.8448174569984985,1936,1275,463
7.847389086999101,1803,1311,502
7.84996188399964,1744,1277,487
7.852535429999989,1781,1281,492
7.855108059999111,1835,1323,509
7.8576803149990155,1883,1278,464
7.8602523199988354,1917,1303,485
7.862840033998509,1922,1299,481
7.865412329998435,1936,1298,486
7.8679855020000105,1782,1310,507
7.870557090000148,1760,1280,486
7.8731303039985505,1802,1301,501
7.875701850000041,1853,1302,492
7.878274146998592,1893,1282,469
7.880847234999237,1920,1311,487
7.883419323999988,1935,1296,470
7.88599195399911,1909,1311,495
7.888565083998401,1761,1298,497
7.891136838999955,1763,1275,483
7.893710551999902,1809,1310,507
7.896293848998539,1858,1294,482
7.898867686999438,1900,1288,477
7.901442608999787,1922,1307,489
7.904014280999036,1936,1285,470
7.906587285999194,1860,1310,496
7.909160581999458,1766,1295,494
7.911732503998792,1778,1280,494
7.914305383999817,1829,1325,523
7.916878430998622,1873,1286,474
7.919450476998463,1909,1296,481
7.922023440998601,1930,1305,483
7.924595361999309,1936,1280,462
7.927168366999467,1815,1315,501
7.929741371999626,1749,1280,491
7.932314626999869,1781,1287,496
7.934887423998589,1834,1328,524
7.937460387000101,1877,1278,466
7.9400332259992865,1917,1302,485
7.942605313999593,1931,1299,480
7.94517798599918,1935,1289,474
7.947748282998873,1783,1307,501
7.950321078998968,1745,1276,485
7.95289483399938,1788,1292,498
7.9554665479990945,1841,1301,493
7.95803942800012,1887,1280,470
7.960611473999961,1917,1307,486
7.963184853999337,1934,1296,477
7.9657576929985225,1931,1307,490
7.968329822999294,1776,1306,496
7.97090241099977,1758,1277,488
7.973475623999548,1807,1307,507
7.976048462998733,1856,1296,483
7.978621342999759,1894,1285,471
7.981194513999071,1922,1311,487
7.9837662689988065,1932,1287,469
7.986339398999917,1874,1310,496
7.988912363000054,1751,1283,483
7.991484617999959,1774,1279,483
7.99405774799925,1822,1319,511
7.996631002999493,1867,1291,478
7.999204091000138,1904,1294,479
8.001777887999197,1929,1312,490
8.004356392999398,1936,1286,464
8.006930730998647,1835,1323,504
8.00950448599906,1758,1295,495
8.01210857499973,1779,1290,494
8.014701079999213,1831,1333,527
8.017274000998441,1880,1280,467
8.019846380999297,1911,1301,480
8.02369030599948,1932,1303,486
8.026265643999068,1884,1294,494
8.028841565999755,1758,1284,495
8.031414445998962,1766,1266,483
8.03398715899857,1814,1310,511
8.036559913998644,1867,1285,479
8.039131835999797,1904,1289,477
8.041716173998793,1923,1306,485
8.044297845999608,1935,1280,464
8.046871558999555,1840,1309,496
8.049445521999587,1760,1290,491
8.052017985999555,1780,1281,490
8.054592823998973,1831,1328,527
8.057173370998498,1875,1276,464
8.059751625998615,1907,1296,485
8.062323796999408,1927,1303,483
8.064896593999947,1936,1280,465
8.067469265999534,1799,1315,505
8.070040853999672,1749,1280,486
8.072613192998688,1786,1293,496
8.07518482299929,1840,1323,507
8.077756953000062,1882,1277,469
8.080330415999924,1915,1307,489
8.08290196300004,1931,1300,481
8.085474133999014,1938,1300,490
8.088046138998834,1779,1311,503
8.09061960299914,1761,1280,485
8.093217857998752,1805,1301,503
8.095844612998917,1853,1300,495
8.098435534999226,1895,1285,471
8.10100933099966,1922,1311,495
8.103582169998845,1933,1293,473
8.10615392499858,1891,1311,496
8.108727512999394,1759,1297,497
8.111297309998918,1764,1277,485
8.113869564998822,1808,1311,511
8.116443527998854,1859,1287,480
8.119014865998906,1902,1287,479
8.121587329998874,1925,1310,485
8.124162584999794,1936,1285,464
8.126736880998578,1844,1304,499
8.129310219999752,1754,1287,496
8.131883474999995,1776,1279,493
8.134456187999604,1827,1325,525
8.13702827599991,1872,1279,473
8.139600197999243,1906,1296,485
8.142173410999021,1926,1303,484
8.144745665998926,1936,1271,460
8.14732062999974,1816,1315,502
8.149894884998503,1758,1283,489
8.152468472999317,1791,1292,497
8.15504122799939,1840,1328,511
8.157614691999697,1883,1280,467
8.160186237999369,1913,1297,479
8.162758742999358,1931,1297,479
8.165331164998861,1937,1297,479
8.167903211999146,1790,1314,506
8.170475132999854,1762,1280,487
8.173047012998722,1802,1297,501
8.175618767998458,1855,1310,496
8.178189981999822,1894,1282,471
8.18076240299888,1918,1307,493
8.183333824999863,1932,1296,474
8.185906162998435,1916,1314,496
8.188480251999863,1783,1308,503
8.191052131998731,1776,1283,489
8.193623927998487,1817,1318,511
8.196200057998794,1869,1301,489
8.198774979999143,1903,1289,477
8.201348567999958,1926,1313,494
8.203920489999291,1935,1291,467
8.20649216199854,1872,1314,496
8.20906579199982,1774,1298,496
8.211901505999776,1782,1285,494
8.214784052999676,1830,1327,528
8.217529016999833,1882,1282,475
8.22031156399862,1917,1305,486
8.223049735999666,1933,1299,479
8.225788533000014,1937,1301,486
8.228526245999092,1779,1306,497
8.2312613769991,1767,1280,484
8.233993256999383,1814,1312,507
8.236729553998885,1863,1293,477
8.239456808998511,1909,1296,477
8.242193772999599,1934,1309,485
8.244932527999481,1937,1280,459
8.24768419999964,1767,1302,499
8.250421789000029,1706,1263,478
8.25316154399843,1754,1275,490
8.25590421599918,1829,1286,484
8.258644472000015,1877,1266,465
8.261377809998521,1913,1295,481
8.264109481999185,1923,1277,463
8.266842445998918,1856,1297,489
8.26957236799899,1763,1285,486
8.272342331998516,1789,1283,490
8.27507666999918,1840,1332,525
8.277812341999379,1883,1279,465
8.280546722999134,1913,1303,482
8.283276727999692,1933,1296,470
8.28601239999989,1926,1308,486
8.288747654998588,1807,1311,496
8.291478160999759,1802,1296,487
8.29421387399998,1843,1332,511
8.29694962999929,1885,1302,478
8.29968238499896,1913,1307,481
8.302419764999286,1935,1311,485
8.305158853998364,1936,1283,466
8.307897400998627,1797,1318,503
8.310635322999588,1764,1283,490
8.313373452998349,1803,1304,499
8.316105041998526,1856,1305,493
8.31884096399881,1901,1287,476
8.32158071899903,1921,1310,490
8.324348182999529,1936,1286,464
8.327084021999326,1837,1306,496
8.329820693999864,1754,1284,485
8.332557533,1785,1286,492
8.335289370999817,1840,1327,510
8.338024250999297,1888,1278,464
8.340764548998777,1916,1306,483
8.343497886999103,1931,1295,471
8.346234183998604,1910,1305,487
8.348969813998337,1774,1297,495
8.351701735999086,1777,1280,482
8.354437491998397,1825,1325,511
8.357177579999188,1872,1285,470
8.359910751998541,1910,1297,477
8.362641257999712,1930,1303,482
8.365372637999826,1935,1279,464
8.368103767999855,1770,1301,497
8.370836439999039,1741,1267,477
8.37356686199928,1791,1295,499
8.37633757599906,1845,1292,479
8.37907145600002,1897,1279,465
8.381808586998886,1923,1302,479
8.384545550999974,1934,1277,452
8.38727726399884,1818,1311,496
8.390013352998722,1749,1282,486
8.392747982999936,1782,1289,493
8.395478529999309,1841,1322,506
8.39822678499877,1887,1279,465
8.400968790998377,1919,1307,483
8.403706212999168,1936,1290,467
8.406446176999452,1887,1306,495
8.409181473998615,1760,1296,494
8.41242414699991,1771,1279,482
8.415132651998647,1825,1325,511
8.417826199000046,1885,1275,469
8.420516328998929,1919,1301,486
8.423204542999883,1935,1296,473
8.425895338999908,1928,1303,485
8.428583552999044,1765,1301,496
8.431269891998454,1761,1276,484
8.433961771999748,1808,1311,507
8.43665190199863,1861,1289,477
8.439340240998717,1903,1293,475
8.442031578999377,1922,1308,483
8.444723917999,1936,1278,459
8.447412339999573,1807,1309,500
8.450104469999133,1744,1279,483
8.452794016999178,1780,1289,496
8.455481771999985,1840,1316,499
8.458172986000136,1887,1278,465
8.460862157999145,1920,1306,481
8.463548620999063,1933,1295,465
8.466236209998897,1903,1309,492
8.468923922999238,1758,1290,485
8.47161251199941,1764,1271,479
8.474300308998863,1819,1314,511
8.476989730999776,1860,1281,467
8.479679902999123,1904,1289,471
8.482371073998365,1926,1300,475
8.485059662998538,1936,1271,458
8.487745126998561,1791,1314,501
8.490434964998713,1745,1280,485
8.493132719999267,1787,1296,497
8.495823850998931,1841,1305,496
8.498513313999865,1890,1281,469
8.501202402998388,1919,1308,489
8.503889865998644,1930,1287,464
8.50657891299852,1871,1307,495
8.509269543999835,1758,1291,493
8.511958673998379,1776,1278,486
8.514650511999207,1825,1325,511
8.517341058999591,1872,1280,465
8.520029397999679,1906,1297,481
8.522718610998709,1927,1297,478
8.5254079919996,1936,1289,473
8.52809666399844,1788,1310,506
8.53078908599855,1764,1280,483
8.533478340999864,1808,1305,505
8.536167512998873,1853,1298,485
8.538856309998664,1899,1285,469
8.541544897998392,1921,1308,486
8.54423486199994,1934,1285,466
8.546959324999989,1845,1305,493
8.549650163999104,1758,1288,487
8.552362168999025,1786,1284,492
8.555052173998774,1837,1330,523
8.557741762999285,1883,1277,466
8.560431392999817,1917,1302,485
8.563119065000137,1931,1296,475
8.565806904000056,1932,1302,490
8.56849370099917,1776,1305,499
8.5711834979993,1765,1279,483
8.573871253000107,1813,1312,510
8.576562549998926,1863,1293,481
8.57925280499876,1903,1291,477
8.581941351998466,1927,1307,483
8.584628814998723,1935,1280,461
8.58731177899972,1822,1313,505
8.59000157599985,1758,1284,487
8.592695580999134,1792,1293,495
8.595384210999327,1846,1325,506
8.598075882999183,1890,1280,467
8.600773596999716,1919,1307,485
8.603462476999994,1932,1296,469
8.606152024000039,1909,1309,488
8.608843320998858,1763,1297,493
8.61153403499884,1761,1277,481
8.614258081999651,1814,1315,511
8.616949544999443,1867,1284,475
8.619639634000123,1907,1294,480
8.622328972000105,1926,1302,482
8.625016435998987,1935,1276,461
8.62770344099954,1799,1313,505
8.630393195999204,1759,1279,483
8.633086660000117,1798,1296,498
8.635773289999634,1850,1309,491
8.63846362899858,1896,1283,465
8.641153050999492,1920,1310,484
8.643841763998353,1935,1291,463
8.646530185998927,1873,1311,492
8.649219024999184,1764,1296,494
8.651905404998615,1779,1279,489
8.654593784998724,1831,1328,511
8.657282414998917,1873,1283,467
8.659969295998962,1906,1299,482
8.66265684300015,1934,1303,480
8.665343263999603,1936,1291,471
8.668030685999838,1789,1313,502
8.670717774999503,1759,1280,485
8.67340523799976,1807,1302,506
8.676091159999487,1855,1299,489
8.67877924899949,1901,1287,474
8.681470170999091,1923,1312,491
8.684157009000046,1933,1288,466
8.686890847999166,1853,1309,493
8.689584602998366,1761,1290,493
8.69230185899869,1783,1283,492
8.69499198899939,1839,1333,528
8.697681743999055,1879,1279,465
8.700370623999333,1918,1304,489
8.703060129999358,1934,1299,478
8.705750634999276,1935,1302,481
8.708439848000125,1770,1301,497
8.711125644998901,1755,1274,483
8.713813108999602,1807,1308,510
8.71650115599914,1859,1291,481
8.719189452998762,1895,1287,476
8.721878457999992,1925,1307,486
8.724566712999149,1935,1280,462
8.727254467999956,1829,1311,501
8.729942514999493,1759,1282,489
8.732630686999983,1791,1291,496
8.735316775999308,1843,1327,510
8.738007113999629,1887,1280,467
8.740694952999547,1920,1307,486
8.743382499998916,1931,1296,469
8.746069629998601,1916,1309,491
8.748758718998943,1769,1299,496
8.751445431998945,1769,1279,482
8.754133062999244,1815,1316,509
8.756819942998845,1867,1291,478
8.759506405998764,1904,1295,479
8.76219332799883,1930,1305,481
8.76488099999915,1936,1279,459
8.767569379999259,1808,1313,501
8.7702720519992,1756,1281,485
8.772970015999817,1792,1294,496
8.775659187998826,1844,1314,496
8.778346275999866,1889,1284,469
8.781035947999044,1921,1312,490
8.783723036998708,1934,1291,467
8.786411666998902,1886,1309,496
8.78910083899973,1760,1295,496
8.791786843999944,1775,1280,488
8.794476432998636,1824,1323,511
8.797166062999167,1872,1284,471
8.79985627699898,1910,1299,477
8.80254761499964,1927,1302,478
8.805237453998416,1936,1284,469
8.807925625998905,1786,1306,502
8.810615005999352,1753,1277,481
8.81330567799887,1799,1297,498
8.816029390998665,1840,1299,487
8.81872327199926,1896,1284,469
8.821414818999983,1922,1310,487
8.82410390699988,1936,1285,464
8.826792537000074,1856,1308,496
8.829480667998723,1765,1289,491
8.832170297999255,1787,1286,492
8.834859677999702,1838,1333,526
8.837548266999875,1882,1280,467
8.840235480000047,1911,1305,486
8.842956776999927,1930,1297,478
8.845647615999042,1936,1297,482
8.848360703999788,1783,1307,501
8.851051084999199,1769,1279,485
8.853741006998462,1811,1311,510
8.856429428999036,1861,1297,485
8.859117308998975,1904,1292,477
8.861807813998894,1922,1311,489
8.864495277999595,1934,1284,464
8.867181907999111,1831,1312,500
8.869868245999896,1763,1287,486
8.872554792998926,1792,1290,496
8.875241381998421,1844,1328,511
8.877931511999122,1888,1280,464
8.880619726000077,1919,1307,485
8.883306730998811,1936,1298,474
8.885996027998772,1917,1311,491
8.888684490999367,1764,1298,496
8.891371121999327,1761,1277,483
8.894060501999775,1814,1314,511
8.896751339998445,1868,1291,480
8.899438803999146,1910,1295,480
8.902127517998451,1931,1307,485
8.904814730998623,1938,1280,463
8.907502152998859,1759,1297,497
8.910189950000131,1682,1257,475
8.912877329999901,1731,1264,487
8.915562293999756,1806,1286,495
8.918251340999632,1863,1257,464
8.920939554000142,1905,1287,482
8.923625767998601,1925,1278,465
8.926312730998688,1894,1296,488
8.929003777999242,1776,1295,497
8.931693159000133,1786,1279,486
8.934381746999861,1831,1324,511
8.937069376999716,1872,1285,474
8.93975617399883,1911,1296,481
8.942444387999785,1933,1307,483
8.945131100999788,1936,1281,464
8.947817522999685,1828,1321,509
8.950507236999329,1797,1296,492
8.953195699999924,1829,1315,505
8.955883955999525,1867,1319,498
8.958573127998534,1905,1296,475
8.961262883000018,1926,1318,494
8.963957012998435,1936,1296,470
8.96665051799937,1870,1315,496
8.969340064999415,1767,1298,494
8.972028028998466,1782,1286,490
8.974715908998405,1840,1333,526
8.977403580998725,1882,1285,470
8.980090627999743,1913,1299,487
8.982780299998922,1933,1302,482
8.9854691799992,1937,1295,479
8.98815601899878,1793,1314,505
8.990844981999544,1767,1282,483
8.993535486999463,1810,1308,507
8.996225200999106,1857,1307,488
8.998961289998988,1901,1289,478
9.00165283699971,1923,1313,486
9.004342716998508,1936,1286,464
9.007030888998997,1837,1308,496
9.009720351999931,1749,1283,487
9.012459982999644,1776,1280,495
9.015176945998974,1835,1329,511
9.017867201999252,1885,1275,464
9.020558039999742,1919,1305,484
9.02324800399947,1934,1296,472
9.02594417599903,1927,1305,486
9.028634722999413,1761,1297,495
9.03132239399929,1756,1273,482
9.034010274999673,1806,1311,511
9.036698154999613,1862,1289,479
9.039385576999848,1903,1289,479
9.042074457000126,1915,1296,470
9.044762420999177,1936,1277,458
9.047448550998524,1812,1311,498
9.0501375979984,1750,1280,483
9.052825519998805,1787,1289,493
9.055515691999972,1843,1318,498
9.058206904999679,1888,1280,466
9.060896576998857,1920,1305,483
9.063597290998587,1933,1291,470
9.066302087998338,1899,1306,493
9.06899417599925,1744,1292,493
9.07168313999864,1759,1269,482
9.074372227998538,1815,1314,511
9.07705839999835,1865,1281,475
9.079745196999284,1905,1295,482
9.082433993999075,1926,1296,479
9.085124915998676,1936,1280,465
9.087814670998341,1790,1310,503
9.090507134998916,1744,1275,483
9.093198347998623,1791,1294,497
9.095886144999895,1845,1298,491
9.098575275998883,1890,1282,470
9.101263821999964,1923,1310,486
9.1039520359991,1936,1287,468
9.106639040999653,1857,1303,495
9.109329129998514,1738,1282,489
9.112016301998665,1753,1266,482
9.114705306999895,1817,1315,511
9.117393353999432,1868,1271,467
9.120082400999308,1909,1296,484
9.122774030998698,1933,1301,479
9.125464327998998,1936,1292,477
9.128152499999487,1766,1299,497
9.130840671999977,1738,1264,473
9.133529593998901,1792,1293,496
9.136217431998375,1844,1286,480
9.138956478998807,1899,1280,469
9.141649567998684,1927,1310,486
9.144363489998796,1936,1284,464
9.147052286998587,1826,1301,496
9.149742874998992,1731,1270,483
9.15245500599849,1765,1267,487
9.155178801998773,1824,1318,510
9.157880348999242,1875,1273,464
9.160571270998844,1914,1301,486
9.16326081799889,1933,1296,473
9.165950364998935,1926,1303,490
9.168648786999256,1747,1287,492
9.171337291998498,1744,1261,475
9.174025338999854,1796,1296,505
9.17671246899954,1854,1281,479
9.17940172499948,1904,1291,480
9.182091812999715,1923,1308,485
9.184784109998873,1936,1273,454
9.187475864999215,1788,1299,496
9.190165953999895,1724,1263,480
9.19285470899922,1765,1273,483
9.19554204799897,1831,1301,497
9.198229386000094,1881,1275,465
9.200918141999864,1917,1302,491
9.20360606399845,1933,1294,470
9.206296151998686,1897,1302,486
9.208987198999239,1739,1283,485
9.211673620999136,1749,1261,476
9.214361084999837,1810,1305,509
9.217052672998761,1860,1280,474
9.219742427998426,1904,1296,480
9.222432183998535,1930,1303,483
9.225120438999511,1938,1278,466
9.227806526998393,1783,1302,498
9.23049669899956,1742,1265,479
9.233183912998356,1787,1282,493
9.235869667998486,1844,1296,491
9.238557839998975,1891,1281,470
9.24124555399976,1920,1310,492
9.243932891999066,1936,1291,470
9.246621688998857,1872,1308,495
9.249310444000002,1751,1285,487
9.252001490998737,1771,1271,486
9.254693704999227,1830,1321,511
9.257384584998363,1872,1279,470
9.26007263199972,1900,1295,476
9.262760470999638,1927,1305,481
9.265448350999577,1937,1296,478
9.26813556399975,1770,1301,497
9.270822652999414,1743,1263,475
9.273509865999586,1793,1293,498
9.27619645499908,1843,1290,486
9.27888908499881,1894,1289,475
9.281582048999553,1923,1311,492
9.284305720999328,1936,1286,464
9.28699676799988,1835,1296,487
9.289686064999842,1738,1273,480
9.292372736999823,1769,1270,482
9.295057866998832,1826,1322,511
9.297746329999427,1872,1275,469
9.300435043998732,1913,1306,493
9.30312288299865,1931,1299,477
9.305811928999901,1935,1303,487
9.308500892999291,1759,1296,496
9.311189397998533,1747,1264,477
9.313879944998916,1804,1299,503
9.316569116999744,1856,1285,479
9.319256789000065,1903,1294,481
9.321946460999243,1929,1312,491
9.32463604899931,1937,1282,464
9.3273317209987,1819,1308,497
9.330022476999147,1745,1274,481
9.33271189900006,1783,1281,494
9.335398361999978,1840,1315,507
9.338087866999558,1885,1279,467
9.340775705999476,1920,1311,493
9.34346616899893,1933,1298,475
9.346155882998573,1914,1310,490
9.348845971999253,1775,1296,486
9.351534434999849,1771,1273,479
9.354222773999936,1819,1312,509
9.356911236998712,1869,1286,477
9.359599450999667,1907,1298,485
9.362289163998867,1925,1311,488
9.364975794998827,1936,1280,462
9.367666507998365,1795,1310,500
9.370354638998833,1744,1270,479
9.373042726998392,1780,1283,494
9.375732356998924,1840,1299,494
9.378420403998462,1886,1282,470
9.381109534999268,1920,1313,491
9.383796914999039,1936,1295,471
9.386484377999295,1884,1309,495
9.389174299998558,1746,1279,480
9.391865179999513,1763,1269,481
9.39455743599865,1815,1315,511
9.397246273998462,1871,1280,469
9.399934029999713,1911,1300,487
9.402624200998616,1931,1305,482
9.405310914999063,1939,1292,474
9.408001336998495,1776,1302,496
9.41068979999909,1747,1265,475
9.413378971999919,1793,1293,496
9.4160656439999,1846,1294,485
9.418782690998341,1895,1287,478
9.421495863000018,1921,1313,494
9.424184409999725,1936,1290,466
9.426874498998586,1846,1302,493
9.429562545999943,1743,1275,481
9.432250467998529,1763,1270,485
9.434969638999974,1826,1319,525
9.437659560999236,1872,1274,468
9.440352066998457,1913,1305,486
9.443043489000047,1931,1299,481
9.445735743998739,1935,1300,485
9.448426457000096,1773,1297,495
9.451114128998597,1755,1264,477
9.453804717999446,1807,1302,503
9.456710556998587,1855,1290,479
9.459399561999817,1903,1295,482
9.462091733999841,1926,1311,484
9.464782280998406,1935,1280,458
9.467471493999255,1819,1312,501
9.470159957998476,1762,1278,482
9.472851462998733,1793,1287,490
9.475535718998799,1846,1317,498
9.478978849998384,1891,1286,470
9.481675563998579,1921,1312,495
9.484366651999153,1936,1283,464
9.487054032999367,1840,1301,497
9.489744413000153,1756,1279,484
9.492433209999945,1781,1278,489
9.495121464999102,1839,1327,511
9.497810469998512,1885,1281,465
9.500499558998854,1915,1307,484
9.503189772000042,1935,1302,475
9.505883610998353,1934,1308,486
9.508577407999837,1774,1300,495
9.511266121999142,1758,1269,477
9.513955292999526,1809,1303,503
9.51664471499862,1858,1289,478
9.519332636999025,1903,1294,481
9.522021308999683,1927,1314,486
9.52471064800011,1935,1281,461
9.527398610998716,1822,1312,499
9.5300891579991,1763,1280,483
9.532777246999103,1792,1287,493
9.535464834998493,1845,1321,502
9.538156006999998,1893,1287,469
9.540845178999007,1923,1315,490
9.543532392999623,1937,1298,474
9.546222480999859,1901,1311,490
9.548912402999122,1707,1277,485
9.551600074999442,1718,1251,471
9.554289579999022,1789,1294,506
9.55698033599947,1843,1270,471
9.559668298999895,1904,1285,481
9.56235722099882,1928,1299,480
9.56504539299931,1933,1270,461
9.567737772998953,1770,1297,496
9.570428569999422,1723,1259,475
9.573118116999467,1766,1275,495
9.575801080998644,1834,1291,486
9.578490793999663,1883,1274,468
9.581181132998609,1917,1303,488
9.583869179999965,1933,1287,465
9.586560142999588,1889,1309,495
9.589249482000014,1792,1296,493
9.591937862000123,1806,1284,489
9.5946275339993,1845,1330,525
9.597315497998352,1885,1294,477
9.600003210998693,1918,1312,491
9.602691382999183,1934,1311,485
9.605381179999313,1938,1296,479
9.608069393998449,1779,1299,496
9.610759189999953,1763,1277,483
9.613447028999872,1808,1303,503
9.616133533998436,1857,1301,495
9.618862330999036,1902,1293,476
9.62155337799959,1923,1317,493
9.624243091999233,1937,1294,467
9.62696263899852,1840,1309,492
9.629653351999877,1744,1281,486
9.63234698299857,1775,1277,487
9.635036237999884,1827,1328,523
9.637727200999507,1874,1277,467
9.640416331998495,1917,1306,486
9.643105377999746,1932,1299,476
9.645793633999347,1935,1303,486
9.648484638999435,1771,1301,496
9.65117122799893,1755,1269,482
9.653860815998996,1808,1302,503
9.656551612999465,1860,1293,478
9.659239326998431,1904,1294,483
9.661928456998794,1930,1311,491
9.664619794999453,1935,1283,464
9.667310175998864,1813,1307,496
9.66999709799893,1744,1274,485
9.672686393998447,1779,1278,491
9.67537023299883,1839,1315,502
9.678061196998897,1885,1280,467
9.680751868998414,1920,1310,487
9.683434956999918,1933,1297,471
9.686123795998355,1911,1309,489
9.688814301000093,1764,1296,495
9.69150334799997,1765,1271,475
9.694193852999888,1813,1312,505
9.696885232999193,1869,1281,474
9.69957407199945,1908,1296,475
9.702264159999686,1931,1308,481
9.704953790998843,1936,1280,459
9.707640795999396,1794,1309,496
9.71033021799849,1745,1273,478
9.7130190150001,1786,1287,496
9.715707477998876,1847,1307,496
9.718394984000042,1890,1280,469
9.721082696998565,1920,1310,492
9.72377124400009,1934,1293,469
9.726462665999861,1882,1307,496
9.72915479599942,1754,1290,493
9.73184317599953,1763,1274,480
9.73453276500004,1821,1319,511
9.737221936999049,1871,1280,470
9.739909066998734,1907,1296,482
9.742599030998463,1933,1302,481
9.74529186899963,1937,1284,472
9.747979874999146,1769,1305,499
9.750669712999297,1741,1267,483
9.75335834299949,1790,1296,498
9.756044973999451,1842,1296,487
9.758733770999243,1893,1282,471
9.761423275998823,1923,1309,490
9.764112197999566,1936,1287,467
9.766802785999971,1852,1306,493
9.769489249998514,1744,1282,486
9.772177337999892,1771,1276,485
9.774865301998943,1826,1326,511
9.777554765998502,1874,1277,465
9.780247270999098,1911,1301,483
9.782959775999188,1934,1297,476
9.785649280998769,1936,1297,481
9.788363869998648,1768,1300,496
9.791054374998566,1747,1270,480
9.793744546999733,1799,1300,503
9.796444676998362,1856,1292,478
9.79913118299919,1899,1279,468
9.801818478999849,1925,1309,486
9.804507359998752,1936,1278,461
9.807195572999262,1826,1307,496
9.809882369998377,1745,1280,486
9.812572333999924,1776,1280,489
9.815259046999927,1835,1325,508
9.817947677998745,1884,1278,464
9.820636807999108,1915,1303,487
9.823327020998477,1924,1296,473
9.826018192999982,1921,1307,489
9.828706906999287,1776,1300,496
9.831395453998994,1773,1277,486
9.83408504199906,1819,1314,507
9.836773547998746,1869,1293,478
9.839463177999278,1905,1296,480
9.842152350000106,1931,1309,485
9.8448417719992,1936,1278,456
9.84752915199897,1814,1311,496
9.850217448998592,1762,1280,483
9.852905578998616,1795,1287,496
9.85559662599917,1849,1318,498
9.858286505999786,1893,1285,467
9.860974885999894,1915,1311,486
9.863662516998374,1935,1294,465
9.866350354999668,1897,1308,490
9.869036568999945,1768,1296,494
9.871726073999525,1776,1281,483
9.874413079000078,1827,1324,523
9.877100875999531,1872,1290,470
9.87978821499928,1910,1299,481
9.882476136999685,1927,1303,479
9.885164599998461,1936,1282,466
9.88785327199912,1805,1314,499
9.890542651999567,1766,1281,483
9.893232407999676,1806,1298,496
9.895917829999235,1855,1305,490
9.898606042999745,1894,1287,475
9.901291964999473,1922,1306,482
9.903979844999412,1926,1293,467
9.906668641999204,1872,1311,495
9.909356438998657,1761,1294,493
9.912043110998638,1779,1283,486
9.914730115999191,1833,1328,525
9.91741745499894,1882,1285,467
9.92010562699943,1911,1303,482
9.922797006998735,1930,1302,478
9.92548442899897,1937,1295,478
9.928171433999523,1786,1311,499
9.930858980998892,1758,1279,479
9.933547110998916,1803,1303,506
9.936232990999997,1854,1298,491
9.938950537998608,1902,1289,475
9.941639793998547,1925,1312,485
9.944349340999906,1935,1287,464
9.947038012998746,1841,1307,496
