time,y1,y2,y3
0.005936052999459207,1941,934,450
0.00865164199967694,1930,1009,387
0.011346981000315282,2059,1183,448
0.014039694999155472,2150,1294,475
0.01672961700023734,2112,1354,495
0.01942545599922596,2042,1410,528
0.022119794999525766,1983,1343,474
0.02481150899984641,1950,1349,490
0.02749888899961661,1934,1328,475
0.03018772799987346,1936,1333,495
0.03287856699898839,2134,1427,544
0.035569321998991654,2131,1446,538
0.03825832799884665,2073,1477,561
0.040944749998743646,2003,1424,526
0.043640879999657045,1962,1391,503
0.04633271899911051,1936,1373,503
0.04901922499993816,1927,1326,471
0.05171189700013201,2084,1426,552
0.054403943999204785,2144,1457,548
0.05709557399859477,2099,1475,558
0.05978645499999402,2031,1481,557
0.06247308499951032,1975,1399,501
0.06516063199887867,1946,1392,510
0.06784668000000238,1929,1347,483
0.07053685199934989,1964,1374,511
0.07322619099977601,2126,1445,554
0.0759482379999099,2109,1456,548
0.07863886799896136,2053,1483,571
0.08135566499913693,1987,1417,511
0.0840453789987805,1955,1386,505
0.08673555099994701,1933,1365,497
0.08942568199927337,1923,1319,477
0.09214014600001974,2091,1430,554
0.09485752599903208,2125,1451,546
0.09755861499979801,2076,1471,559
0.10025712099923112,2009,1449,539
0.10295533399948908,1962,1392,499
0.1056532149996201,1936,1386,509
0.108344219999708,1922,1337,481
0.11103668400028255,2010,1395,528
0.1137271059997147,2123,1449,547
0.11642140399999334,2097,1458,550
0.11911165899982734,2032,1488,573
0.12180758099930244,1978,1398,502
0.12449983700025768,1946,1389,509
0.12719421699875966,1929,1359,496
0.12989193099929253,1923,1333,494
0.13258264499927463,2103,1434,557
0.13527856699874974,2115,1447,545
0.13797407200036105,2064,1472,561
0.140666119999878,1999,1430,528
0.1433580829998391,1957,1387,500
0.14605204699910246,1933,1375,501
0.1487445940001635,1922,1328,474
0.15143880799951148,2046,1410,543
0.15413422999881732,2129,1453,546
0.15682994399867312,2096,1463,553
0.15952611600005184,2028,1486,560
0.16221841399965342,1973,1397,497
0.16490904399870487,1936,1387,509
0.16760292499930074,1926,1349,489
0.1702982629994949,1936,1357,503
0.17298931000004814,2123,1439,551
0.17568527399998857,2117,1453,544
0.17838148800001363,2059,1481,565
0.1810771599994041,1993,1423,511
0.18377237399909063,1951,1390,503
0.1864664629993058,1929,1367,499
0.18915925999863248,1920,1319,466
0.19185322399971483,2081,1424,549
0.1945482709998032,2134,1454,543
0.19730419299958157,2090,1472,556
0.19999957399886625,2017,1471,554
0.20269395399918722,1968,1393,503
0.2054112099995109,1936,1385,509
0.20810900699871127,1920,1343,483
0.21079726300013135,1989,1386,527
0.21350605999941763,2131,1451,554
0.21620219000033103,2112,1459,551
0.21889669600022899,2042,1488,572
0.22158945099909033,1984,1408,502
0.2242792479992204,1946,1388,507
0.22697066999899107,1924,1361,496
0.22966188399914245,1919,1326,485
0.23235247299999173,2099,1434,557
0.23504693699942436,2128,1451,544
0.23773856699881435,2073,1473,561
0.2404282810002769,2004,1441,534
0.2431200369992439,1959,1391,500
0.24581400100032624,1930,1379,509
0.24850813099874358,1919,1329,479
0.25121451199993317,2028,1399,532
0.25391901699913433,2129,1451,550
0.2566178979996039,2100,1463,552
0.2593119029988884,2031,1490,575
0.26200382499882835,1975,1397,498
0.26469312199878914,1939,1389,505
0.2673852949992579,1920,1354,492
0.2700790919989231,1920,1343,497
0.27277113899981487,2127,1437,549
0.2754663529995014,2128,1453,542
0.2781608579989552,2067,1480,568
0.28085582200037607,1999,1426,527
0.2835526189992379,1952,1391,501
0.28624666599898774,1930,1375,501
0.2889391299995623,1917,1324,471
0.2916409270001168,2067,1419,549
0.2943390990003536,2139,1456,549
0.29702964699936274,2096,1471,556
0.2997262349999801,2023,1479,559
0.302419657999053,1968,1394,501
0.30511132999890833,1936,1388,509
0.3078072099997371,1920,1345,484
0.3105020909988525,1950,1365,511
0.3131943049993424,2122,1441,551
0.3158843519995571,2112,1454,545
0.3185751069995604,2045,1479,563
0.3212648629996693,1984,1413,511
0.323986743000205,1945,1383,503
0.3266832070003147,1923,1360,496
0.32938000399917655,1915,1313,467
0.3320715930003644,2083,1424,549
0.3347645569992892,2123,1447,542
0.33745914599967364,2071,1470,560
0.3401510679996136,2006,1454,544
0.3428459480001038,1958,1391,501
0.3455787459988642,1932,1381,509
0.3482901679999486,1917,1335,479
0.3509900480003125,2000,1392,528
0.35370967899871175,2122,1444,545
0.35640626799977326,2095,1455,545
0.3591033149987197,2029,1483,567
0.3618003619994852,1974,1397,497
0.3644932009992772,1937,1381,501
0.3671891229987523,1920,1354,493
0.3698850450000464,1913,1328,486
0.3725774670001556,2097,1428,549
0.3752730559990596,2114,1443,539
0.3779727279998042,2058,1470,560
0.38066814999911003,1994,1429,528
0.3833644059996004,1949,1383,498
0.38605949500015413,1929,1371,503
0.38875437499882537,1915,1323,468
0.3914519219997601,2034,1405,534
0.39414484499866376,2123,1444,543
0.39683743299974594,2086,1456,547
0.39957506399878184,2017,1478,562
0.40228348599885067,1967,1390,496
0.4049771169993619,1933,1379,501
0.40767733000029693,1919,1344,483
0.41037437799968757,1933,1353,499
0.41306984099901456,2125,1437,547
0.41576467999948363,2117,1451,537
0.4184596019986202,2055,1479,564
0.42115344099875074,1986,1418,511
0.4238461549994099,1943,1381,502
0.42654211899935035,1922,1364,501
0.4292349989991635,1911,1314,465
0.4319632129991078,2077,1424,550
0.43466092699964065,2128,1447,542
0.4373813490001339,2080,1468,555
0.4400798129991017,2007,1458,546
0.4427783190003538,1958,1390,497
0.4454715739993844,1929,1379,508
0.448162370999853,1917,1334,481
0.45085687699975097,1984,1381,528
0.45355325699893,2123,1443,550
0.45624647099975846,2099,1455,546
0.45894272700024885,2033,1482,567
0.4616366489990469,1974,1401,506
0.4643281129992829,1936,1383,506
0.4670230760002596,1920,1357,495
0.4697181649989943,1913,1321,480
0.4724180459998024,2097,1429,549
0.4751171349998913,2125,1447,539
0.4778123069991125,2067,1470,559
0.48050422899905243,2000,1438,530
0.48319290099971113,1952,1387,501
0.4858869899999263,1926,1377,505
0.4885803699999087,1913,1328,471
0.49127845899965905,2026,1397,531
0.49398900599953777,2128,1447,549
0.49668684499920346,2096,1458,549
0.499384516999271,2030,1488,570
0.5020806889988307,1970,1394,497
0.5047735699990881,1938,1383,503
0.5074697000000015,1920,1350,487
0.5101651639997726,1918,1342,496
0.5128602530003263,2055,1415,542
0.5155531339987647,2059,1422,532
0.5182455140002276,2010,1450,554
0.5209370199991099,1962,1397,510
0.5236277749991132,1932,1361,496
0.5263205720002588,1909,1353,497
0.5290117029999237,1904,1303,465
0.5317039999990811,2061,1407,539
0.5344001299999945,2128,1442,541
0.5370965940001042,2086,1459,548
0.5397918910002772,2014,1469,555
0.542485146999752,1963,1389,496
0.5451791109990154,1932,1379,502
0.5478791579989775,1915,1341,481
0.5505746629987698,1954,1362,509
0.5532667939987732,2135,1445,549
0.5559912159988016,2125,1456,541
0.5586868469999899,2058,1485,564
0.5613828939985979,1985,1417,508
0.5640761909999128,1942,1389,501
0.5667726550000225,1921,1362,494
0.5694716599991807,1911,1313,471
0.5721648319995438,2082,1426,549
0.5748594209999283,2122,1445,543
0.5775546349996148,2067,1468,557
0.5802485989988782,2000,1451,534
0.5829444379996858,1952,1389,499
0.5856394849997741,1923,1378,507
0.5883319900003698,1911,1329,477
0.5910275369988085,1999,1390,528
0.5937235009987489,2127,1443,547
0.5964156729987735,2098,1455,546
0.5991185120001319,2031,1487,573
0.6018198929996288,1973,1412,511
0.6045142729999498,1936,1392,511
0.6072087789998477,1920,1360,506
0.6099024929990264,1906,1334,499
0.6125943309998547,2078,1429,560
0.6152882119986316,2095,1442,547
0.6179795919997559,2043,1466,569
0.620672265000394,1985,1425,534
0.6233638529993186,1946,1380,506
0.6260600249988784,1920,1370,509
0.6287451139996847,1914,1326,478
0.6314685369998188,2017,1399,544
0.6342022499993618,2098,1440,551
0.6369419229995401,2067,1451,555
0.6396775529992738,2006,1470,563
0.6423772669986647,1961,1383,503
0.6450696889987739,1932,1377,511
0.6477609449993906,1920,1341,485
0.6504524920001131,1933,1358,510
0.653140121999968,2096,1431,555
0.6558294189999287,2092,1435,548
0.6585201750003762,2033,1469,572
0.6612075140001252,1983,1409,527
0.6638970610001707,1941,1378,507
0.6665934409993497,1925,1360,507
0.669317821999357,1919,1310,473
0.6720105360000161,2047,1414,557
0.6747028749996389,2096,1435,551
0.6773902969998744,2057,1455,560
0.6800777609987563,1996,1446,546
0.6827674739997747,1959,1383,499
0.6854569379993336,1930,1377,511
0.6881430689991248,1920,1336,493
0.6908316569988528,1968,1371,529
0.6935197459988558,2078,1425,553
0.6962267519993475,2064,1435,549
0.698929631998908,2007,1465,571
0.7016226790001383,1967,1392,508
0.7043112270002894,1939,1375,507
0.7070016899997427,1922,1353,499
0.7096920289986883,1917,1321,491
0.7123797429994738,2066,1424,558
0.7150679569986096,2093,1435,547
0.7177583369993954,2045,1457,556
0.7204429260000325,1989,1430,534
0.7231326820001414,1950,1381,501
0.7258239370003139,1932,1371,511
0.7285153590000846,1919,1328,484
0.7312163229998987,2003,1392,535
0.7339062449991616,2091,1437,554
0.7365934589997778,2070,1446,551
0.739284339999358,2015,1470,576
0.7419719279987476,1968,1390,506
0.7446601419997023,1939,1378,511
0.7473483140001917,1926,1348,496
0.750037527999666,1920,1335,499
0.7527236589994573,2078,1424,555
0.7554127889998199,2091,1436,544
0.758101211000394,2033,1463,560
0.7607917169989378,1984,1423,528
0.7634829309990891,1951,1381,503
0.7661718529998325,1927,1370,506
0.7688593169987143,1921,1323,478
0.7715472799991403,2027,1407,549
0.7742371189997357,2101,1439,549
0.7769250829987868,2064,1455,554
0.7796137969999108,2009,1470,567
0.7823023019991524,1966,1387,498
0.7849884329989436,1922,1369,502
0.7876763129988831,1923,1344,495
0.7903644849993725,1936,1351,511
0.7930529489985929,2111,1433,557
0.7957608710003115,2102,1445,547
0.7984627929999988,2042,1474,570
0.8011525069996424,1988,1415,525
0.8038447629987786,1949,1381,509
0.8065343929993105,1927,1367,507
0.8092222319992288,1921,1318,475
0.8119417380003142,2047,1421,554
0.8146317849987099,2101,1440,547
0.8173508740001125,2065,1457,560
0.8200399209999887,2005,1456,547
0.8227319259985961,1960,1386,503
0.8254226400003972,1936,1381,511
0.8281104790003155,1926,1341,490
0.8308001509994938,1974,1376,528
0.8334902819988201,2106,1440,553
0.8361781619987596,2090,1450,547
0.838871833999292,2032,1478,573
0.8415657980003743,1980,1405,509
0.8442533029992774,1950,1385,510
0.8469430169989209,1930,1360,502
0.8496318979996431,1920,1321,485
0.8523196119986096,2072,1424,560
0.8550120339987188,2101,1440,549
0.8577059139988705,2053,1461,564
0.8603974199995719,1997,1438,541
0.8630887999988772,1955,1386,510
0.865779472000213,1936,1378,511
0.868467102998693,1921,1333,486
0.8711570670002402,2001,1393,534
0.873847738999757,2106,1440,555
0.8765354529987235,2079,1454,553
0.8792229579994455,2018,1483,575
0.881910379999681,1968,1395,507
0.8845985939988168,1941,1385,511
0.8872875159995601,1926,1358,501
0.8899759799987805,1920,1335,497
0.8926656940002431,2087,1429,559
0.8953796160003549,2101,1440,547
0.8980940379988169,2047,1466,562
0.9007934599994769,1991,1425,528
0.9034925910000311,1954,1385,510
0.906190304998745,1931,1373,510
0.908884226999362,1923,1328,483
0.911581190999641,2035,1409,552
0.9142750709997927,2110,1443,557
0.9169668679987808,2074,1456,558
0.9196605819997785,2013,1474,564
0.9223571290003747,1968,1392,502
0.9250537179996172,1939,1386,511
0.9277473900001496,1930,1349,492
0.9304423539997515,1936,1360,523
0.9331356509992474,2096,1435,555
0.9358310320003511,2093,1437,547
0.9385276619996148,2036,1471,569
0.9412198760001047,1984,1410,525
0.9439443399987795,1947,1383,511
0.9466440119995241,1935,1364,506
0.949364684000102,1926,1317,475
0.9520603569999366,2058,1421,557
0.9547594039995602,2098,1440,545
0.957461242998761,2063,1458,560
0.9601543729986588,2000,1453,548
0.9628486700003123,1961,1389,508
0.9655445509997662,1936,1384,511
0.9682370979990083,1929,1339,492
0.9709318120003445,1983,1385,528
0.9736269839995657,2101,1440,556
0.9763197809988924,2085,1447,550
0.9790129949997208,2027,1477,574
0.9817084999995132,1981,1400,506
0.9844049219991575,1947,1386,511
0.9871030529993732,1932,1354,502
0.9897987249987636,1925,1326,494
0.9924916469990421,2076,1425,560
0.9951860279998073,2096,1439,551
0.9978815329995996,2045,1462,566
1.0005748299990955,1993,1431,540
1.003322668999317,1957,1387,509
1.0060592999998335,1936,1378,511
1.0087546389986528,1927,1330,478
1.0114506029985932,2031,1405,549
1.014237317000152,2112,1445,558
1.0169833639993158,2082,1458,559
1.019678868999108,2021,1477,571
1.0223704159998306,1974,1392,507
1.0250620049991994,1942,1386,511
1.0277506769998581,1931,1351,495
1.0304420579996076,1941,1360,511
1.033130230000097,2107,1439,560
1.0358194860000367,2100,1440,550
1.0385090330000821,2045,1474,571
1.0411977879994083,1987,1418,528
1.0438859189998766,1953,1387,510
1.0465744659995835,1936,1370,509
1.0492633459998615,1925,1326,483
1.0519830180001009,2066,1427,560
1.054674191000231,2119,1447,553
1.0573621959993034,2075,1469,562
1.0600507429990103,2016,1463,554
1.0627404569986538,1968,1392,505
1.0654280879989528,1941,1387,523
1.0681163009994634,1926,1346,494
1.0708054320002702,1975,1382,528
1.0734937710003578,2113,1443,558
1.0761795679991337,2096,1455,550
1.0788676149986713,2035,1483,576
1.0815568289999646,1986,1409,511
1.0842455839992908,1953,1391,511
1.086941673000183,1933,1364,503
1.0896292620000168,1921,1327,490
1.092317851000189,2093,1433,562
1.095005189999938,2121,1451,556
1.0977117370002816,2074,1472,569
1.1004127010000957,2011,1454,543
1.1031057059990417,1968,1395,511
1.1057957949997217,1945,1389,511
1.1084832169999572,1932,1343,493
1.1111719719992834,1991,1397,542
1.1138649360000272,2065,1432,558
1.116554524998719,2043,1440,551
1.1192437809986586,1995,1471,576
1.121934118998979,1958,1385,501
1.1246182920003776,1936,1372,511
1.127307213999302,1922,1347,498
1.1299972189990513,1922,1330,497
1.132685724998737,2098,1430,559
1.1353771880003478,2112,1443,550
1.138078443998893,2063,1471,564
1.1407662410001649,2000,1433,533
1.1434554129991739,1958,1389,511
1.1461439599988807,1936,1377,511
1.1488326329999836,1926,1328,485
1.1515218049989926,2045,1412,554
1.1542183099991234,2128,1454,559
1.1569074409999303,2092,1468,560
1.1595963629988546,2032,1487,572
1.1622844100002112,1978,1399,507
1.1649726649993681,1949,1392,524
1.1676620460002596,1933,1359,499
1.1703498009992472,1936,1358,511
1.1730359739995038,2097,1439,558
1.1757273539988091,2098,1446,550
1.1784178589987278,2043,1474,571
1.1811075320001692,1990,1422,527
1.1837959539989242,1958,1387,510
1.1864824179992866,1936,1374,510
1.189170589999776,1925,1323,486
1.191858094998679,2058,1423,555
1.1945449759987241,2110,1446,554
1.1972467729992786,2070,1460,560
1.1999990699987393,2005,1453,545
1.2027484089994687,1965,1381,496
1.205453372998818,1940,1378,503
1.2081510869993508,1930,1335,478
1.2108470509992912,1982,1374,511
1.213546013999803,2124,1443,550
1.2162411030003568,2107,1456,544
1.2189360249994934,2039,1483,567
1.2216290729993489,1985,1408,503
1.2243237029997545,1951,1390,509
1.2270171669988486,1935,1377,511
1.229710088999127,1927,1335,495
1.232401385999765,2091,1438,562
1.2350977669993881,2117,1454,558
1.2378030639993085,2066,1472,567
1.2404988609996508,2002,1446,541
1.2431954499988933,1967,1393,511
1.2458912049987703,1937,1383,511
1.2485861269997258,1932,1338,486
1.2512828830003855,2022,1404,539
1.2539809720001358,2119,1451,553
1.2566741859991453,2095,1460,557
1.2593681910002488,2028,1489,578
1.2620633219994488,1979,1399,507
1.264754534999156,1948,1391,511
1.2674498329997732,1935,1360,499
1.2701454629986983,1929,1345,507
1.272835343999759,2099,1434,559
1.275530015998811,2109,1449,549
1.2782260209987726,2055,1475,570
1.2809171930002776,1992,1427,532
1.2836142409996683,1961,1391,511
1.2863092459992913,1936,1376,511
1.2890010020000773,1927,1328,484
1.2916950069993618,2047,1419,554
1.2943899290003174,2112,1447,555
1.2970813100000669,2079,1462,560
1.2997739820002607,2016,1474,560
1.302470070999334,1970,1392,507
1.305164617999253,1944,1387,524
1.3078602479999972,1933,1349,496
1.3105543789988587,1951,1366,526
1.3132467180003005,2107,1439,558
1.3159721809988696,2096,1450,551
1.3186657699989155,2038,1478,571
1.3213607340003364,1989,1417,527
1.3240506980000646,1952,1390,511
1.3267419530002371,1936,1370,501
1.3294320419990981,1926,1323,481
1.3321236729989323,2071,1427,559
1.3348180119992321,2112,1443,551
1.3375145589998283,2067,1467,560
1.3402086480000435,2005,1456,549
1.3429053609997936,1964,1393,508
1.3455990339989512,1941,1386,525
1.3482882469998003,1933,1344,491
1.3509802110002056,1979,1379,528
1.353675882999596,2111,1443,558
1.3563679299986688,2092,1455,553
1.3590633530002378,2031,1485,573
1.3617573999999877,1983,1403,504
1.3644546140003513,1953,1389,511
1.3671525769987056,1934,1363,499
1.3698507909994078,1925,1331,494
1.372545172000173,2095,1435,560
1.3752409689986962,2116,1449,548
1.377938515999631,2064,1473,561
1.3806312719989364,2001,1437,537
1.3833254849996592,1966,1392,511
1.3860210740003822,1941,1381,511
1.3887142879993917,1931,1333,486
1.3914080849990569,2026,1407,543
1.3941022569997585,2115,1449,555
1.3967956799988315,2084,1460,556
1.3994879769998079,2022,1488,573
1.402184982000108,1978,1395,503
1.4048764039998787,1949,1389,510
1.4075713259990152,1935,1357,496
1.4102716239995061,1930,1353,506
1.4129639619986847,2096,1433,560
1.415658842999619,2098,1443,551
1.418351514999813,2045,1472,573
1.4210439790003875,1994,1422,528
1.4237347340003907,1957,1386,511
1.4264274899996963,1939,1375,511
1.4291199540002708,1927,1327,480
1.4318121260002954,2058,1419,555
1.4345081729989033,2116,1450,559
1.4372027619992878,2078,1464,560
1.439896558998953,2011,1471,560
1.442590022999866,1972,1392,506
1.4453101529998094,1943,1390,511
1.448003241999686,1934,1349,496
1.4506987479999225,1965,1374,526
1.4533942529997148,2110,1442,558
1.4560864249997394,2096,1453,550
1.4587809309996373,2039,1480,571
1.4614763949994085,1987,1413,526
1.4641703170000255,1955,1390,523
1.466867655999522,1936,1367,505
1.4695638279990817,1929,1324,486
1.4722578749988315,2077,1429,559
1.474953547000041,2105,1446,547
1.4776487189992622,2064,1467,562
1.4803406409992022,2004,1450,544
1.483036980000179,1967,1392,508
1.4857315270000981,1938,1388,511
1.4884224500001437,1933,1343,491
1.4911184550001053,2006,1398,537
1.4938119189991994,2114,1447,556
1.4965090489986324,2095,1456,559
1.4992074299989326,2033,1488,577
1.50190218500029,1974,1403,511
1.504594983000061,1953,1389,526
1.5072900300001493,1936,1360,503
1.5099854099989898,1918,1328,490
1.5126764990000083,2095,1434,560
1.515371587998743,2107,1445,545
1.518063051998979,2061,1472,563
1.5207549320002727,2000,1436,530
1.5234479379996628,1962,1390,511
1.526140359999772,1943,1381,511
1.5288339069993526,1933,1329,485
1.5315268710000964,2038,1409,544
1.5342245849988103,2117,1449,553
1.5369165479987714,2082,1461,560
1.5396154709997063,2023,1486,569
1.5423128089987586,1979,1395,507
1.5450041069998406,1946,1392,511
1.5476979039995058,1936,1354,496
1.5503925760003767,1937,1360,511
1.5530868730002112,2105,1439,559
1.5557808789999399,2101,1449,549
1.5584753839993937,2047,1477,567
1.561167640000349,1993,1423,528
1.5638646030001837,1962,1390,511
1.5665579839987913,1939,1374,511
1.5692441559986037,1934,1327,480
1.571972661999098,2064,1426,557
1.57466737499999,2112,1449,549
1.577359130998957,2075,1467,561
1.5800515529990662,2017,1466,558
1.582746682999641,1973,1393,501
1.5854409809999197,1948,1390,511
1.588132027998654,1936,1347,494
1.5908275330002652,1981,1381,528
1.5935240799990424,2121,1447,557
1.596216377998644,2107,1456,555
1.598910299999261,2035,1488,576
1.6016150550003658,1989,1413,511
1.6043133519997355,1958,1391,511
1.6070091080000566,1936,1367,510
1.609704155000145,1933,1329,489
1.6123955359998945,2095,1439,560
1.6150902079989464,2124,1454,553
1.6177827550000075,2074,1475,569
1.6204735939991224,2013,1449,545
1.6231653909999295,1971,1395,511
1.6258582299997215,1941,1389,522
1.6285506519998307,1931,1344,486
1.6312414490002993,2019,1405,539
1.6339394129990978,2123,1455,558
1.6366320849992917,2097,1461,558
1.6393279240000993,2034,1491,581
1.642023471000357,1984,1405,509
1.6447151430002123,1954,1392,524
1.647409314999095,1937,1360,500
1.6501040709990775,1929,1346,503
1.6527957429989328,2105,1440,559
1.6554925399996137,2112,1451,551
1.6581825869998283,2064,1478,567
1.6608728430001065,2000,1434,530
1.6635668899998564,1966,1392,511
1.6662592699995002,1941,1383,511
1.6689507339997363,1936,1333,485
1.6716437399991264,2042,1415,555
1.6743370369986224,2113,1447,559
1.6770287090002967,2080,1462,561
1.679721463999158,2021,1479,567
1.6824165529997117,1982,1396,506
1.6851077249993978,1953,1391,525
1.6878022309992957,1936,1357,497
1.6904999859998497,1942,1364,511
1.693193949999113,2047,1424,555
1.695888288999413,2038,1424,539
1.698583419998613,2000,1452,564
1.7012747999997373,1966,1394,511
1.7039970969999558,1943,1369,508
1.7066931440003827,1931,1359,501
1.7093873579997307,1925,1312,478
1.7120774469985918,2085,1425,559
1.7147719109998434,2130,1453,550
1.7174678749997838,2089,1472,560
1.7201631299994915,2021,1467,548
1.7228552189990296,1975,1397,508
1.7255534329997317,1946,1392,511
1.728263896999124,1936,1347,492
1.7309819439997227,1999,1392,534
1.7336779489996843,2131,1455,560
1.7363699130000896,2113,1466,559
1.739062501999797,2055,1494,581
1.7417562159989757,1995,1415,511
1.7444484709994867,1958,1397,523
1.7471440600002097,1937,1370,507
1.7498385239996423,1932,1335,496
1.7525336959988635,2096,1440,560
1.7552306179986772,2114,1451,547
1.7579283739996754,2066,1473,567
1.7606205459997,2007,1440,543
1.7633165099996404,1970,1392,511
1.7660107239989884,1943,1387,511
1.7687027289994148,1935,1338,494
1.7713976929990167,2031,1408,543
1.774092407000353,2114,1451,554
1.7767850789987278,2087,1459,557
1.7794812510001066,2027,1488,581
1.782176131999222,1983,1398,510
1.7848705950000294,1949,1390,511
1.7875673090002238,1936,1360,496
1.790263064998726,1936,1354,508
1.7929553619997023,2102,1437,558
1.795655201000045,2107,1450,547
1.7983513309991395,2059,1478,569
1.8010436699987622,1996,1426,528
1.8037395510000351,1959,1392,510
1.8064359309992142,1942,1377,511
1.809125686999323,1933,1329,482
1.811820066999644,2064,1422,558
1.81451336399914,2118,1455,555
1.8172066199986148,2085,1466,560
1.819919999999911,2016,1475,562
1.8226163809995342,1977,1395,505
1.825341927999034,1949,1392,511
1.828036766999503,1935,1353,495
1.8307295220001834,1968,1377,528
1.8334216109997215,2115,1445,557
1.83611240800019,2105,1455,550
1.8388067889991362,2045,1483,574
1.8415006269988226,1995,1414,522
1.8441926750001585,1959,1392,511
1.8468861379988084,1936,1369,505
1.8495829359999334,1935,1326,487
1.8522780659986893,2083,1435,559
1.8549723630003427,2113,1450,553
1.8576682439997967,2069,1471,562
1.8603627489992505,2014,1456,544
1.8630577129988524,1968,1393,509
1.8657528439998714,1943,1388,511
1.8684439319986268,1934,1344,492
1.8711380629993073,2006,1397,543
1.8738313599988032,2118,1450,559
1.8765244909991452,2096,1458,554
1.8792210379997414,2032,1488,577
1.8819181269991532,1984,1406,511
1.8846117989996856,1953,1392,525
1.8873064709987375,1936,1363,504
1.8900015179988259,1931,1343,503
1.8926933570000983,2099,1437,559
1.8953871539997635,2111,1450,549
1.8980806589988788,2062,1474,566
1.9007732899990515,2001,1438,537
1.9034696290000284,1966,1392,511
1.9061656759986363,1945,1383,511
1.9088578060000145,1933,1333,485
1.9115521869989607,2043,1415,547
1.9142487760000222,2128,1455,558
1.9169426150001527,2095,1468,560
1.919637953000347,2032,1488,571
1.9223355840003933,1981,1402,507
1.9250299639988953,1953,1392,511
1.927721219999512,1936,1360,498
1.9304122670000652,1943,1361,511
1.9331037310003012,2112,1443,559
1.9357951530000719,2111,1450,549
1.9384920749998855,2059,1478,571
1.9411845809991064,1995,1424,527
1.9438799189993006,1959,1392,511
1.9465773829997488,1942,1375,509
1.9492698889989697,1929,1328,477
1.9519957689990406,2071,1430,559
1.954692649998833,2121,1455,553
1.9573874050001905,2079,1472,561
1.9600782859997707,2016,1470,554
1.9627711249995627,1971,1396,503
1.9654646719991433,1946,1392,511
1.9681553020000138,1936,1348,492
1.97084968299896,1979,1382,528
1.9735470630002965,2117,1449,557
1.9762426099987351,2103,1456,552
1.978938948999712,2037,1482,576
1.9816342049998639,1988,1412,511
1.984329044000333,1955,1392,511
1.987024673999258,1937,1366,502
1.989719346000129,1935,1329,491
1.9924125599991385,2098,1439,560
1.9951068159989518,2128,1456,549
1.9978007379995688,2075,1478,562
2.000492867999128,2014,1453,540
2.0031860819999565,1969,1395,505
2.0059325879992684,1941,1389,511
2.008665134999319,1934,1345,486
2.0113635990001058,2029,1408,541
2.014057436999792,2128,1456,555
2.016748400999859,2100,1468,555
2.0194424069995875,2032,1495,576
2.0222309959990525,1985,1405,503
2.0249680429988075,1955,1393,511
2.0276630489988747,1937,1360,496
2.0303545959995972,1938,1359,510
2.0330479349995585,2127,1442,557
2.0357371070003865,2126,1456,549
2.038429569998698,2067,1486,572
2.0411203259991453,2005,1430,528
2.0438136649991065,1965,1393,511
2.0465029619990673,1943,1380,511
2.049192258999028,1930,1332,478
2.0518827229989256,2065,1424,557
2.0545730619996903,2125,1455,553
2.0572680669993133,2083,1471,561
2.0599881559992355,2019,1473,560
2.0626758279995556,1975,1397,506
2.065364416999728,1947,1392,511
2.0680520059995615,1935,1354,496
2.0719633049993718,1969,1379,524
2.0746671439992497,2122,1454,560
2.0773634830002266,2081,1458,562
2.0800547389990243,2021,1463,558
2.082744368999556,1973,1392,500
2.0854348329994536,1951,1390,511
2.088122712999393,1934,1348,490
2.090812010999798,1981,1378,527
2.0935027659998013,2121,1450,555
2.096192021999741,2110,1456,553
2.0989009019995137,2046,1488,576
2.101605574000132,1993,1422,511
2.104300204999163,1957,1393,511
2.106993043998955,1936,1374,505
2.1096832570001425,1930,1329,492
2.1123721379990457,2091,1440,562
2.11506139300036,2124,1454,554
2.117756773999645,2076,1475,562
2.120447362998675,2011,1446,538
2.1231362849994184,1970,1399,510
2.1258264989992313,1945,1391,523
2.128511086999424,1936,1344,489
2.1312007599990466,2025,1405,539
2.133892472998923,2128,1456,559
2.136582854000153,2107,1466,560
2.139275817999078,2036,1493,581
2.1419656979996944,1990,1408,511
2.144654161998915,1952,1394,523
2.1473457510001026,1936,1363,506
2.150035422999281,1929,1343,499
2.152721844999178,2111,1442,559
2.1554097259995615,2128,1456,551
2.1580983139992895,2074,1479,570
2.160783694998827,2007,1443,537
2.1634714089996123,1968,1395,511
2.1661613719988964,1943,1387,511
2.1688510029998724,1935,1337,482
2.1717446759994345,2052,1415,550
2.174438055999417,2137,1456,556
2.1771248949989968,2096,1472,562
2.179813024999021,2032,1481,567
2.1825009059994045,1981,1403,507
2.1851891200003593,1951,1393,525
2.1878782919993682,1936,1359,496
2.190566338998906,1955,1375,525
2.193252802999268,2132,1454,560
2.1959781419991486,2127,1463,555
2.1986676469987287,2064,1489,576
2.201373527999749,2000,1427,530
2.2040738249997958,1966,1396,511
2.206767621999461,1938,1378,505
2.2094584189999296,1930,1328,478
2.212147049998748,2086,1437,560
2.214837929999703,2129,1456,557
2.2175300599992624,2085,1474,564
2.2202195239988214,2017,1465,553
2.2229061130001355,1969,1393,503
2.225596909998785,1949,1394,525
2.2282823320001626,1936,1350,494
2.2309723799990024,1989,1386,527
2.2336628430002747,2133,1456,560
2.236351098999876,2112,1463,557
2.239040603999456,2047,1493,576
2.2417295679988456,1995,1415,511
2.2444153239994193,1959,1396,524
2.2471034539994434,1936,1372,507
2.249795001000166,1933,1333,494
2.252480839999407,2099,1443,563
2.2551697620001505,2129,1456,554
2.2578576839987363,2080,1482,566
2.260543606000283,2017,1453,546
2.263233069999842,1973,1403,511
2.2659243259986397,1947,1392,523
2.2686129979992984,1937,1346,487
2.271301503000359,1995,1398,533
2.273990800998945,2067,1437,549
2.2766787229993497,2039,1442,550
2.2793681450002623,1997,1471,570
2.28205802499906,1963,1386,496
2.284747071998936,1936,1375,506
2.287436536000314,1929,1348,496
2.290126042000338,1925,1335,497
2.2928120469987334,2110,1431,560
2.29550009400009,2123,1448,549
2.298188766999374,2067,1477,567
2.300891564000267,2001,1434,534
2.303593610999087,1968,1392,511
2.3062853249994077,1943,1383,511
2.3089744139997492,1935,1335,484
2.311666460998822,2067,1424,554
2.314356382999904,2155,1461,560
2.3170440969988704,2113,1477,563
2.3197325189994444,2039,1494,573
2.3224204409998492,1989,1408,510
2.3251088629986043,1952,1392,511
2.327807159999793,1936,1361,500
2.3304977909992886,1949,1368,511
2.3331823379994603,2112,1443,560
2.335873177000394,2106,1456,553
2.3385633069992764,2053,1482,575
2.3412496879991522,1998,1423,528
2.343971442998736,1962,1392,511
2.346662739999374,1940,1375,509
2.3493757879987243,1933,1328,477
2.3520657930002926,2078,1431,560
2.354755798000042,2127,1456,549
2.3574445539998123,2086,1472,561
2.36013472599916,2021,1471,555
2.362825439999142,1974,1395,507
2.3655125699988275,1947,1392,525
2.3681988259995705,1936,1351,496
2.3708872480001446,1980,1387,531
2.373574919998646,2123,1450,557
2.376262466999833,2101,1458,550
2.378950848000386,2043,1488,575
2.3816385619993525,1994,1415,511
2.3843244839990803,1956,1394,511
2.387012530998618,1938,1373,508
2.3897007449995726,1926,1331,489
2.392391333998603,2083,1438,560
2.3950802969993674,2112,1453,550
2.3977662609995605,2071,1472,560
2.4004660169994168,2012,1450,541
2.4031637719999708,1971,1394,508
2.4058555279989378,1945,1389,510
2.408544740999787,1936,1344,486
2.411236788999304,2015,1406,543
2.413927210998736,2121,1455,555
2.4166141749992676,2096,1462,551
2.4193030549995456,2035,1489,576
2.4219917270002043,1985,1403,511
2.424680857999192,1954,1392,523
2.4273699049990682,1938,1360,496
2.4300589519989444,1934,1344,498
2.4327446239985875,2097,1438,558
2.4354371299996274,2112,1450,552
2.4381298429998424,2059,1473,566
2.4408193069994013,2003,1434,533
2.44351010399987,1966,1392,509
2.446198067998921,1939,1382,511
2.448884657000235,1929,1333,485
2.4515737040001113,2037,1418,551
2.454263417999755,2119,1453,557
2.456954422999843,2086,1463,557
2.459645011998873,2030,1488,569
2.4623345179988974,1981,1401,506
2.465022397998837,1953,1392,511
2.4677098619995377,1936,1360,497
2.4703999510002177,1938,1360,511
2.4730851229996915,2101,1440,558
2.4757733779988484,2100,1446,547
2.4784613419997186,2046,1478,570
2.4811497230002715,1997,1424,528
2.483839728000021,1962,1390,511
2.4865288589990087,1938,1376,507
2.4892180309998366,1931,1328,478
2.4919085359997553,2064,1426,557
2.494605457999569,2117,1451,551
2.497321380998983,2079,1467,560
2.5000357199987775,2017,1471,560
2.5027478499996505,1973,1397,503
2.5054503559986188,1945,1391,511
2.5081466939991515,1936,1348,495
2.5108447000002343,1982,1382,528
2.5135422889998154,2119,1450,560
2.5162335029999667,2106,1456,557
2.5189288000001397,2042,1487,575
2.5216273049991287,1989,1413,511
2.5243222689987306,1957,1392,511
2.5270161909993476,1936,1370,505
2.5297081129992876,1929,1324,483
2.532398535999164,2094,1438,560
2.5350905409995903,2119,1454,553
2.5377831299992977,2067,1474,564
2.540475093999703,2010,1454,544
2.5431707659990934,1968,1398,509
2.545867187998738,1945,1391,511
2.5485574430003908,1935,1344,487
2.5512515739992523,2018,1404,539
2.553949287999785,2118,1456,558
2.5566425019987946,2096,1461,555
2.5593379649999406,2032,1490,578
2.5620314289990347,1982,1404,511
2.5647219759994186,1954,1392,511
2.5674160239996127,1937,1361,501
2.570110320999447,1933,1344,500
2.5728008259993658,2105,1435,557
2.5754948319990945,2113,1453,551
2.5781897119995847,2063,1478,567
2.580881259000307,2000,1435,534
2.583575597998788,1967,1392,511
2.5862727699986863,1939,1379,511
2.588964358999874,1932,1333,484
2.591658572999222,2053,1418,544
2.5943525370003044,2126,1453,558
2.597043791998658,2087,1468,559
2.599736463998852,2026,1485,561
2.6024405119987932,1982,1398,508
2.60513655899922,1953,1392,511
2.607831647999774,1936,1358,496
2.6105261109987623,1950,1367,522
2.613216325000394,2118,1446,560
2.615920746999109,2114,1456,547
2.618618210999557,2063,1487,573
2.621339466999416,2000,1424,528
2.624032638999779,1959,1393,511
2.626725185999021,1940,1376,507
2.6294243579995964,1931,1328,478
2.6321161549985845,2085,1429,555
2.634807536000153,2131,1455,555
2.6374978329986334,2086,1475,563
2.6402325889994245,2020,1469,555
2.642951551999431,1970,1399,511
2.6457013910003297,1949,1392,523
2.648422063999533,1935,1348,496
2.6511212770001293,2010,1398,540
2.6538153660003445,2128,1449,557
2.6565048299999034,2109,1463,551
2.65919579399997,2039,1491,575
2.6618848409998463,1985,1408,511
2.664572846999363,1955,1393,511
2.667262809998647,1937,1366,501
2.669951816000321,1933,1341,497
2.6726389049999852,2109,1442,561
2.6753292020002846,2127,1456,552
2.67801633199997,2074,1479,566
2.6807051289997617,2007,1446,540
2.683396217998961,1968,1395,511
2.6860866400002124,1943,1387,511
2.6887733539988403,1936,1342,490
2.6914639429996896,2037,1412,550
2.694152572999883,2133,1457,559
2.696840328999315,2102,1471,560
2.6995297929988737,2037,1501,581
2.7022366729997884,1985,1406,510
2.7066130160001194,1951,1397,527
2.709344520999366,1934,1325,485
2.712040567999793,2067,1425,558
2.7147340739993524,2115,1450,551
2.7174266209985944,2075,1467,560
2.720115418000205,2016,1467,554
2.722805381999933,1975,1392,510
2.725494053998773,1949,1391,511
2.7281858930000453,1937,1351,492
2.730876272999012,1982,1386,529
2.733564694999586,2117,1450,560
2.7362554510000336,2107,1458,554
2.7389438729987887,2045,1488,577
2.7416352540003572,1993,1415,524
2.7443213839997043,1961,1392,511
2.7470138059998135,1936,1369,503
2.749707019998823,1927,1329,489
2.7523943169999256,2083,1435,559
2.7550817809988075,2112,1453,551
2.7577714529998048,2069,1473,563
2.7604584589989827,2009,1450,544
2.7631482559991127,1968,1395,509
2.7658372200003214,1945,1387,511
2.768523599999753,1934,1344,489
2.7712108969990368,2009,1402,539
2.773900569000034,2113,1450,554
2.7765914909996354,2093,1458,557
2.779281496999829,2032,1488,579
2.781970543999705,1984,1405,509
2.784657882999454,1952,1392,511
2.787344721999034,1937,1364,503
2.7900343109995447,1931,1342,501
2.792721232999611,2106,1442,560
2.7954178629988746,2124,1453,549
2.798107243999766,2070,1479,567
2.8007934159995784,2007,1439,535
2.8034998799994355,1967,1392,510
2.8061875519997557,1943,1385,511
2.808874140999251,1934,1334,483
2.811563937999381,2043,1417,549
2.814252817999659,2129,1456,557
2.816940656999577,2096,1470,560
2.8196303289987554,2032,1491,572
2.822317917998589,1984,1403,508
2.8250048819991207,1952,1393,525
2.8276945959987643,1936,1360,499
2.8303810179986613,1939,1360,511
2.833070022999891,2108,1441,559
2.835758528999577,2110,1452,548
2.838448033999157,2057,1478,571
2.8411401649991603,2000,1424,528
2.8438297119992058,1966,1392,511
2.8465207169992937,1942,1378,511
2.8492097229991487,1935,1330,482
2.851900353000019,2066,1427,554
2.854593484000361,2127,1455,558
2.857311863999712,2090,1472,563
2.8600037029991654,2026,1477,561
2.862694624998767,1983,1401,511
2.865384296999764,1955,1392,525
2.868071011000211,1941,1355,494
2.870759600000383,1963,1377,527
2.873657688998719,2075,1434,553
2.87634698599868,2063,1441,546
2.8790374500003963,2017,1472,574
2.881727664000209,1975,1395,507
2.884415544998774,1950,1379,509
2.8871043829985865,1931,1360,497
2.889793471998928,1921,1324,486
2.8924799779997556,2096,1430,560
2.8951691080001183,2128,1452,555
2.897872154999277,2079,1473,567
2.9005765359997895,2011,1451,541
2.903274082998905,1969,1399,510
2.905966921998697,1943,1390,511
2.908651051999186,1936,1342,488
2.9113428909986396,2037,1408,542
2.914034104998791,2153,1461,559
2.9167219439987093,2119,1475,561
2.919416115999411,2054,1504,581
2.922106329999224,1993,1411,511
2.924793876998592,1959,1399,526
2.9274845910003933,1941,1366,506
2.9301720959992963,1932,1353,505
2.9328616019993206,2116,1448,560
2.9355523149988585,2127,1459,551
2.9382431129997713,2074,1488,570
2.9409347429991612,2007,1443,534
2.943624331999672,1967,1398,511
2.9463149209987023,1940,1387,511
2.949003884999911,1934,1334,483
2.9516933069990046,2047,1424,553
2.954384894999748,2127,1456,553
2.957073900999603,2089,1471,560
2.959762780999881,2031,1488,567
2.9624507869993977,1978,1402,510
2.9651367509995907,1951,1392,511
2.9678271310003765,1936,1358,496
2.970519886999682,1946,1365,511
2.973208100998818,2109,1443,555
2.975907230998928,2103,1453,550
2.978598902998783,2047,1479,569
2.9813185339990014,1995,1424,527
2.984011788999851,1964,1392,511
2.9867036699997698,1942,1376,510
2.9893937169999845,1934,1327,480
2.992083138999078,2073,1430,554
2.9947714779991657,2113,1453,547
2.9974618579999515,2074,1471,560
3.0001514889991086,2019,1466,553
3.0028416189998097,1974,1394,506
3.005576415998803,1949,1391,522
3.008311921999848,1937,1351,493
3.0110319279992837,1988,1389,531
3.013723432999541,2111,1446,557
3.0164108970002417,2092,1455,553
3.0191004019998218,2033,1485,576
3.02178853300029,1986,1407,508
3.0244760799996584,1954,1391,511
3.027163668999492,1936,1365,504
3.0298932989990135,1931,1333,495
3.0326187219998246,2078,1434,558
3.0353119769988552,2097,1443,548
3.0380027329993027,2053,1470,563
3.040694571000131,1997,1436,538
3.0433840770001552,1968,1390,508
3.0460752489998413,1945,1381,511
3.0487636709985964,1934,1338,484
3.0514534269987053,2029,1407,543
3.0541437239990046,2115,1449,551
3.056830520999938,2085,1458,560
3.0595196100002795,2027,1489,582
3.062208531999204,1981,1397,511
3.064898036998784,1947,1390,525
3.0675896259999718,1937,1360,499
3.0702766319991497,1936,1354,509
3.0729634700001043,2095,1430,560
3.07565380899905,2096,1444,550
3.078342523000174,2045,1471,570
3.081030903998908,1996,1424,528
3.0837206169999263,1963,1388,506
3.0864079980001407,1941,1377,511
3.0890953369998897,1934,1329,479
3.0917832590002945,2042,1419,551
3.0944715139994514,2106,1445,555
3.097163227999772,2076,1460,560
3.0998528999989503,2016,1472,560
3.1025426969990804,1974,1392,503
3.1052322029991046,1948,1391,511
3.1079549999994924,1936,1356,495
3.110646838998946,1964,1369,522
3.113361136000094,2112,1441,556
3.1160509749988705,2103,1451,550
3.1187409389985987,2041,1482,564
3.1214305279991095,1994,1422,511
3.1241195749989856,1962,1392,511
3.1268076220003422,1936,1366,508
3.1294977519992244,1935,1327,479
3.132189632999143,2074,1433,559
3.1348795969988714,2111,1451,551
3.1375677269988955,2071,1470,561
3.140261690999978,2015,1457,550
3.142949363000298,1968,1395,511
3.1456394099986937,1947,1391,523
3.148328457000389,1936,1349,493
3.1510178799999267,1996,1392,534
3.153706384999168,2112,1447,556
3.156395515999975,2093,1456,550
3.1590853959987726,2033,1488,575
3.1617756099985854,1984,1408,511
3.1644649489990115,1953,1392,511
3.1671559539990994,1936,1365,503
3.169844125999589,1931,1333,495
3.172531672998957,2096,1439,560
3.17522005399951,2114,1451,554
3.1779090179989,2066,1473,565
3.1805969399993046,2010,1443,539
3.1832894870003656,1969,1394,507
3.1859806590000517,1945,1387,511
3.1886684149994835,1934,1341,485
3.1913551279994863,2030,1407,540
3.1940443009989394,2125,1455,560
3.1967335139997886,2095,1463,551
3.199423977999686,2033,1491,578
3.2021138589989278,1980,1405,510
3.2047993220003264,1953,1392,511
3.2074864109999908,1936,1363,505
3.2101741249989573,1934,1347,504
3.212860964000356,2105,1442,560
3.2155474279988994,2114,1454,547
3.2182347669986484,2064,1477,570
3.220922188998884,2003,1435,533
3.223610651999479,1963,1392,511
3.226302990999102,1940,1383,511
3.2289919129998452,1935,1335,483
3.231681502000356,2047,1418,548
3.2343712159999995,2118,1453,554
3.2370547219998116,2084,1465,560
3.2397440189997724,2022,1484,566
3.242432523999014,1978,1399,506
3.245120487999884,1951,1392,511
3.2478110769989144,1935,1354,496
3.250499748999573,1950,1363,511
3.2531872959989414,2118,1443,559
3.255876426999748,2112,1455,547
3.2585797649990127,2063,1483,571
3.261308770999676,2000,1424,528
3.2640035259992146,1965,1393,511
3.2666951569990488,1937,1377,510
3.269385453999348,1935,1328,480
3.272072584999478,2074,1433,559
3.274762547998762,2119,1456,551
3.2774535959997593,2080,1475,564
3.2801411429991276,2017,1469,558
3.282830689999173,1975,1397,510
3.2855181119994086,1947,1392,523
3.288207783998587,1935,1351,496
3.290898498000388,1979,1387,532
3.2935870029996295,2112,1446,557
3.2962735919991246,2099,1456,554
3.2989619729996775,2039,1484,576
3.3016515620001883,1993,1411,524
3.304338734000339,1957,1392,511
3.3070282389999193,1939,1370,509
3.3097172449997743,1931,1328,490
3.3124054170002637,2084,1437,561
3.3150943809996534,2112,1453,550
3.317782260999593,2069,1472,563
3.320471932998771,2009,1451,542
3.323164313998859,1968,1394,509
3.3258526110003004,1943,1389,511
3.328556074999142,1935,1343,491
3.331249704999209,2015,1402,542
3.3339401689991064,2121,1453,555
3.3366315490002307,2096,1461,558
3.339319347000128,2034,1489,577
3.3420084769986715,1986,1405,511
3.3446982329987804,1955,1392,511
3.3473873209986778,1936,1364,503
3.3500761189989134,1932,1338,496
3.3527659569990647,2108,1436,561
3.3554553799986024,2123,1455,554
3.358143426999959,2066,1481,571
3.360831807000068,2003,1439,541
3.3635472289988684,1964,1393,511
3.3662410260003526,1946,1387,511
3.368928073999996,1933,1335,487
3.3716177039987087,2042,1415,550
3.374307668000256,2126,1455,558
3.3769947569999204,2095,1469,560
3.3796835119992465,2026,1488,571
3.3823708090003493,1981,1402,511
3.3850606479991256,1951,1393,523
3.387752319998981,1936,1360,495
3.3904451170001266,1941,1360,511
3.393138122999517,2110,1440,560
3.3958317119995627,2103,1449,550
3.3985222169994813,2053,1479,571
3.4012090139985958,2000,1424,527
3.403898978000143,1957,1392,511
3.4066289000002143,1940,1378,511
3.4093525309999677,1933,1328,478
3.4120439950002037,2071,1431,557
3.414735791999192,2116,1455,546
3.4174285890003375,2069,1472,560
3.4201190949988813,2021,1471,555
3.4228092249995825,1978,1393,503
3.425500313998782,1945,1391,511
3.4281883610001387,1936,1351,493
3.4308768669998244,1978,1386,529
3.4335683720000816,2122,1452,559
3.4362596279988793,2111,1459,558
3.4389505079998344,2047,1488,577
3.441638846999922,1994,1415,526
3.4443308110003272,1958,1393,511
3.4470196080001188,1939,1373,507
3.449713404999784,1935,1330,491
3.4524037439987296,2096,1435,557
3.4550936659998115,2127,1457,556
3.4577820880003856,2080,1478,571
3.4604690939995635,2017,1456,543
3.463159140999778,1971,1399,511
3.4658469789992523,1946,1392,522
3.4685327770002914,1936,1345,493
3.4712219489993004,2022,1406,541
3.4739100379993033,2132,1457,560
3.476596585000152,2106,1466,559
3.479286923999098,2039,1498,580
3.4819798869993974,1989,1411,511
3.4846704350002256,1959,1397,511
3.487359397999171,1939,1368,501
3.4900492369997664,1933,1344,497
3.4927357010001288,2106,1444,558
3.4954242059993703,2125,1455,553
3.498111670000071,2071,1479,571
3.5007980089994817,2010,1437,538
3.5034877649995906,1969,1394,511
3.506176894999953,1942,1385,511
3.5088918169985845,1934,1338,484
3.5116083229986543,2046,1417,551
3.5143070369995257,2133,1456,557
3.517002874999889,2097,1472,560
3.519698297999639,2035,1491,570
3.522390344998712,1984,1406,508
3.525081224999667,1953,1395,525
3.527775771999586,1938,1360,496
3.5304719029991247,1943,1367,511
3.533162949999678,2097,1439,557
3.5358551219997025,2096,1446,545
3.5385462939993886,2042,1476,568
3.541236424998715,1994,1423,527
3.5439657639999496,1965,1392,510
3.5466601030002494,1943,1376,509
3.5493801909997273,1936,1327,481
3.552073279999604,2023,1418,558
3.554765951999798,2047,1421,535
3.55747345799864,2020,1441,551
3.560169880000103,1982,1438,548
3.5628712189991347,1950,1374,499
3.5655685989986523,1938,1375,509
3.568260312998973,1934,1335,487
3.5709539849995053,2000,1386,528
3.5736486989990226,2150,1453,555
3.576341912999851,2126,1465,555
3.5790407940003206,2065,1495,576
3.5817367159997957,2000,1420,507
3.5844294290000107,1961,1397,524
3.5871251019998454,1937,1374,511
3.589818481999828,1931,1335,496
3.592510570999366,2103,1445,565
3.5952024509988405,2131,1459,556
3.5978946239993093,2079,1483,570
3.6005849209996086,2016,1454,543
3.6032856759993592,1969,1399,511
3.6059832649989403,1949,1392,522
3.608679103999748,1934,1344,492
3.611376692999329,2032,1408,544
3.614070322999396,2127,1456,559
3.6167629539995687,2098,1466,559
3.619457500999488,2032,1495,583
3.622150380999301,1984,1405,511
3.624840929000129,1955,1392,525
3.627534809000281,1936,1362,499
3.630227648000073,1930,1350,507
3.632920527999886,2107,1441,560
3.63561215899972,2112,1452,554
3.638302830999237,2064,1477,572
3.6409967950003193,2000,1431,531
3.6436886339997727,1966,1393,511
3.646380471998782,1947,1381,511
3.6490719779994834,1935,1333,485
3.651766024999233,2059,1422,554
3.654461113999787,2124,1455,555
3.6571529529992404,2087,1459,557
3.6598466249997728,2022,1474,560
3.662542422000115,1975,1393,501
3.665233386000182,1948,1389,511
3.6679595579989837,1934,1354,490
3.670655313999305,1961,1367,511
3.67337527699965,2121,1442,554
3.6760682000003726,2111,1455,544
3.6787607049991493,2047,1488,571
3.681454085999576,1999,1424,527
3.6841456330002984,1960,1395,511
3.686839971998779,1939,1374,508
3.6895351849998406,1932,1327,482
3.692225815999336,2083,1438,560
3.69491819599898,2123,1456,557
3.697609492999618,2078,1472,566
3.700302290999389,2018,1457,555
3.70299637899916,1973,1398,509
3.7056900520001363,1947,1392,525
3.708383014998617,1933,1348,495
3.711078770998938,1991,1394,537
3.713774817999365,2111,1451,558
3.716467948999707,2093,1458,554
3.719160786999055,2036,1488,577
3.7218531259986776,1987,1407,511
3.7245450069985964,1955,1392,523
3.7272539709993,1939,1365,507
3.7299604339987127,1932,1338,499
3.732655898000303,2099,1441,560
3.7353508619999047,2117,1455,550
3.7380415339994215,2065,1476,567
3.740731997999319,2007,1441,533
3.743422253999597,1968,1394,506
3.746117091999622,1941,1385,511
3.7488098889989487,1936,1337,484
3.7515060619989526,2037,1409,543
3.7542006089988718,2123,1455,557
3.756894738999108,2093,1465,558
3.7595908699986467,2030,1487,567
3.762283750000279,1981,1396,499
3.764975713998865,1951,1391,510
3.767670260998784,1936,1356,496
3.770368266999867,1936,1351,507
3.773061563999363,2110,1438,554
3.775755610999113,2111,1447,541
3.7784483670002373,2059,1478,565
3.7811394139989716,2000,1431,531
3.783833878000223,1966,1392,511
3.7865289660003327,1939,1379,510
3.7892194719988765,1931,1329,478
3.7919383110001945,2064,1427,556
3.794651399999566,2123,1453,555
3.7973729879995517,2081,1469,560
3.800069244000042,2021,1472,559
3.802768790999835,1971,1397,509
3.8054647549997753,1949,1392,511
3.8081582189988694,1935,1350,492
3.8108528909997403,1978,1381,528
3.8135488549996808,2118,1450,558
3.8162418599986268,2099,1456,550
3.818937656998969,2040,1486,577
3.8216332880001573,1989,1418,511
3.824324709999928,1962,1392,511
3.8270188819988107,1936,1370,506
3.829712970999026,1931,1328,490
3.832407059999241,2094,1439,560
3.835103106999668,2119,1456,553
3.8377980289988045,2073,1472,565
3.8404910350000137,2013,1451,543
3.843183457000123,1968,1394,510
3.84587496200038,1938,1389,523
3.848567342998649,1936,1342,487
3.851260639999964,2013,1403,541
3.8539555619991006,2122,1451,557
3.856650608999189,2096,1461,557
3.859348530999341,2034,1493,576
3.862045161999049,1984,1403,508
3.864735250999729,1952,1392,511
3.867430839998633,1935,1361,498
3.8701279279994196,1933,1345,501
3.872819891999825,2105,1438,560
3.8755161480003153,2113,1450,551
3.8782098199990287,2064,1477,565
3.8809028249997937,2002,1434,530
3.883597997999459,1967,1392,507
3.886293294999632,1941,1382,511
3.8889857169997413,1933,1333,482
3.891679555999872,2046,1418,553
3.894374894000066,2118,1452,555
3.8970688579993293,2087,1467,559
3.8997666140003275,2029,1484,563
3.902461202998893,1977,1397,503
3.9051541659991926,1952,1392,511
3.9078478800001903,1936,1355,496
3.91054192699994,1950,1366,511
3.913232015998801,2109,1442,557
3.9159519799995905,2105,1452,553
3.918655318999299,2047,1479,572
3.9213761579994753,1997,1421,525
3.924070330000177,1961,1390,511
3.926765001999229,1937,1373,507
3.929463049000333,1933,1327,480
3.9321570550000615,2073,1433,559
3.9348521849988174,2112,1450,555
3.9375478160000057,2069,1469,563
3.940235070998824,2010,1457,549
3.943863161999616,1968,1395,510
3.9465817929994955,1946,1391,511
3.9493098399998416,1933,1326,479
3.9520063449999725,2065,1425,558
3.9547027259995957,2120,1451,548
3.9573984809994727,2080,1469,560
3.960093694999159,2018,1468,555
3.962792450998677,1973,1397,506
3.9654892059988924,1948,1392,511
3.9681817529999535,1935,1350,493
3.9708776339994074,1970,1387,528
3.9735733889992844,2119,1449,560
3.976265269999203,2109,1458,557
3.9789606089998415,2042,1488,576
3.981661071999042,1994,1417,511
3.98435557799894,1956,1394,511
3.9870510829987325,1936,1372,504
3.9897451719989476,1933,1329,485
3.9924389279985917,2092,1438,560
3.9951355579996743,2113,1454,549
3.9978317719996994,2071,1472,562
4.000524443999893,2006,1447,542
4.003219574999093,1968,1392,509
4.005914121999012,1943,1388,525
4.008659626999361,1936,1342,485
4.011397590998968,2022,1405,538
4.014094262998697,2119,1451,555
4.016787769000075,2090,1458,557
4.019482732999677,2031,1489,582
4.022179696999956,1984,1398,508
4.024873951999325,1947,1392,511
4.027571249000175,1937,1360,501
4.030267504998847,1931,1347,506
4.032961468999929,2092,1425,548
4.035699181999007,2111,1447,553
4.038441896000222,2061,1478,569
4.041143193999233,2000,1427,528
4.0438383239998075,1967,1390,511
4.046530120998796,1942,1379,511
4.049223209998672,1931,1330,482
4.051933173999714,2065,1427,557
4.054627637999147,2125,1455,557
4.057346601999598,2085,1470,560
4.060039064999728,2025,1472,559
4.062731570998949,1978,1399,501
4.065420826000263,1948,1392,510
4.068108498999209,1932,1354,493
4.070799503999297,1977,1377,527
4.073487383999236,2119,1449,560
4.076176222999493,2105,1457,555
4.078863353999623,2042,1486,573
4.081554108999626,1994,1422,524
4.084241114998804,1958,1392,521
4.086931911999272,1936,1373,506
4.089624416999868,1931,1327,485
4.092313297998771,2094,1438,559
4.0950018869989435,2126,1456,553
4.097690599999623,2081,1474,563
4.100379147999774,2019,1456,546
4.103068819998953,1971,1399,510
4.105758075000267,1946,1392,523
4.1084465389994875,1936,1348,494
4.111137169998983,2002,1398,535
4.113826466998944,2119,1451,558
4.116514014000131,2096,1458,558
4.119203643998844,2038,1488,578
4.121892899998784,1984,1407,511
4.124582405000183,1955,1392,511
4.127271993998875,1936,1366,501
4.129962999999407,1918,1328,486
4.13264979700034,2101,1439,561
4.135338801999751,2119,1453,553
4.138031266000326,2067,1475,567
4.1407204799998,2005,1441,535
4.143411234999803,1968,1393,510
4.146101741000166,1942,1387,511
4.1487927879989,1934,1335,485
4.1514817099996435,2032,1409,544
4.154174090999732,2122,1453,553
4.1568634289997135,2092,1467,558
4.159553601999505,2031,1491,575
4.162240564999593,1984,1401,506
4.16492727900004,1954,1392,511
4.167617409999366,1936,1360,497
4.170307206999496,1934,1354,507
4.172993586998928,2111,1441,560
4.17568430099891,2113,1455,550
4.178374514998723,2061,1482,570
4.181062686999212,2001,1430,528
4.183749984000315,1966,1392,509
4.186440114999641,1938,1381,511
4.189128661999348,1935,1333,483
4.191818751000028,2064,1424,556
4.1945066309999675,2128,1455,556
4.197194386999399,2093,1471,561
4.19988368399936,2022,1482,563
4.202572105999934,1977,1399,509
4.205259610998837,1948,1393,523
4.208020824999039,1936,1355,496
4.210713038999529,1964,1375,526
4.213405002999934,2115,1446,560
4.216093799999726,2108,1456,550
4.218782472000385,2055,1487,575
4.22147089399914,1999,1422,526
4.224159317000158,1958,1392,511
4.226848779999273,1938,1371,507
4.229537035998874,1931,1325,477
4.232222915999955,2081,1435,558
4.2351970889994845,2118,1455,552
4.23788480300027,2067,1474,565
4.24057589199947,2013,1446,542
4.243265314000382,1971,1395,508
4.245953777999603,1942,1391,511
4.248646365998866,1936,1343,489
4.251339954998912,2029,1408,539
4.254033585999423,2127,1456,557
4.256723340999088,2102,1467,553
4.259413429999768,2037,1495,580
4.262104851999538,1983,1408,510
4.264791358000366,1953,1392,522
4.267481654998846,1936,1365,501
4.2701709939992725,1932,1344,503
4.272859499000333,2109,1442,561
4.275549170999511,2115,1455,551
4.278238052000233,2069,1481,568
4.280954515999838,2003,1440,531
4.283644813000137,1968,1395,511
4.286335442999189,1947,1387,511
4.289023239998642,1937,1339,484
4.291711412999575,2019,1409,546
4.294399835000149,2067,1431,548
4.297088174000237,2035,1447,554
4.299777221000113,1994,1461,559
4.302465683998889,1954,1377,496
4.305152356999315,1936,1375,507
4.307840736999424,1927,1344,492
4.3105283259992575,1946,1357,511
4.313219080999261,2128,1440,555
4.315934586998992,2128,1456,550
4.31862455099872,2070,1487,572
4.321337680999932,2002,1427,528
4.324026644999321,1967,1393,511
4.326717400999769,1937,1371,510
4.329405030999624,1936,1328,481
4.332093577999331,2087,1440,560
4.334783541999059,2137,1460,555
4.337472756000352,2096,1482,563
4.340160552999805,2029,1474,558
4.342850057999385,1978,1406,511
4.345541646998754,1951,1395,527
4.348227152999243,1936,1355,493
4.350916782999775,1990,1392,534
4.353606122000201,2124,1455,559
4.356294835999506,2110,1463,554
4.35898454999915,2052,1491,577
4.36167326299983,1993,1415,511
4.364361310999811,1961,1395,511
4.367050065999138,1936,1371,508
4.369738571998823,1931,1331,485
4.372426076999545,2093,1438,560
4.3751151239994215,2123,1455,554
4.377806004999002,2075,1472,565
4.380494634999195,2011,1452,543
4.383182890998796,1968,1396,511
4.385872146000111,1936,1389,524
4.38855948499986,1936,1344,490
4.391248406998784,2014,1404,538
4.393937245999041,2118,1451,558
4.396625667999615,2094,1461,557
4.399312673998793,2032,1488,579
4.402000553998732,1983,1405,510
4.404687225998714,1957,1392,525
4.407375064998632,1936,1362,503
4.410063736999291,1933,1344,501
4.412752158999865,2099,1441,558
4.415442122999593,2112,1453,554
4.4181304199992155,2067,1477,566
4.420818175998647,2002,1436,535
4.423507472998608,1967,1393,510
4.426196978000007,1938,1387,511
4.428884691998974,1934,1335,483
4.431574573000034,2034,1411,547
4.43426353599898,2115,1451,557
4.436949749999258,2085,1463,560
4.439639546999388,2026,1486,571
4.442329094999877,1977,1399,506
4.445019433000198,1950,1392,511
4.447708689000137,1936,1359,498
4.45039890299995,1939,1360,511
4.453088824999213,2099,1439,559
4.455777246999787,2099,1448,547
4.458467001999452,2054,1473,570
4.461154716000237,1998,1423,526
4.463843722000092,1958,1390,508
4.466533019000053,1938,1376,510
4.469219773998702,1935,1328,482
4.471935821999068,2055,1424,560
4.47462891000032,2111,1447,554
4.477345665998655,2077,1462,559
4.480035754999335,2011,1470,559
4.482724842999232,1970,1393,502
4.485414848999426,1945,1391,511
4.488101895998625,1934,1349,494
4.49079173499922,1972,1375,525
4.493488948999584,2102,1441,556
4.496190912999737,2093,1449,550
4.498883917998683,2030,1478,570
4.501574799000082,1986,1409,511
4.504265470999599,1957,1388,510
4.50695935099975,1939,1366,502
4.509650022999267,1935,1326,482
4.512336903999312,2074,1429,559
4.515026576000309,2101,1445,551
4.517715789999784,2059,1466,560
4.520404253999004,2003,1447,543
4.523094091999155,1968,1392,508
4.525784473000385,1945,1383,511
4.5284726029985904,1936,1344,491
4.531162941999355,2003,1397,539
4.5338503229995695,2115,1450,554
4.536540369999784,2096,1458,554
4.539232375000211,2032,1489,576
4.5419212139986485,1984,1407,510
4.544613135998588,1953,1391,511
4.547302433000368,1938,1363,503
4.549990896999589,1933,1339,497
4.552680986000269,2090,1434,560
4.5553704499998275,2102,1447,551
4.558060163999471,2059,1471,566
4.560749418998967,2001,1433,530
4.563436049998927,1966,1387,511
4.566123429998697,1942,1381,511
4.568811310999081,1934,1333,486
4.57150294100029,2032,1405,545
4.574192779999066,2114,1449,555
4.576880243999767,2083,1459,557
4.57957016599903,2025,1482,566
4.582260004999625,1975,1392,502
4.584949717998825,1952,1392,523
4.5876393069993355,1935,1360,500
4.5903293960000155,1936,1355,509
4.593019234998792,2099,1438,555
4.595709323999472,2107,1450,548
4.59839737099901,2054,1475,570
4.6010868350003875,2000,1424,527
4.603784839999207,1963,1392,508
4.606474845999401,1938,1379,511
4.609162017999552,1934,1328,482
4.611886231999961,2061,1424,553
4.61462402899997,2119,1454,553
4.617383867998797,2079,1467,560
4.620114831999672,2019,1471,559
4.622845046000293,1970,1392,501
4.62557359299899,1945,1391,511
4.628299014999357,1936,1347,490
4.631026146000295,1987,1389,529
4.633757067998886,2112,1446,555
4.636485240000184,2097,1456,553
4.639213704000213,2033,1486,572
4.641937959999268,1981,1405,507
4.644666381998832,1953,1391,511
4.647395678999601,1936,1361,496
4.650195350999638,1934,1342,496
4.6529570239999885,2096,1435,557
4.655737113000214,2101,1451,547
4.6585054520000995,2046,1474,567
4.661242748999939,1994,1424,528
4.664033420998749,1956,1392,511
4.666763384999285,1938,1374,508
4.669494931998997,1933,1325,475
4.672221020999132,2078,1435,559
4.674950110000282,2121,1453,555
4.677677198998936,2076,1472,565
4.680402787998901,2013,1453,540
4.683129752000241,1970,1399,509
4.6858565069996985,1947,1388,511
4.688579720999769,1936,1344,491
4.691306519000136,2018,1404,542
4.694034107000334,2121,1451,557
4.6967632380001305,2096,1463,558
4.699493743999483,2032,1491,581
4.7022229569993215,1985,1401,508
4.704948504999265,1950,1392,523
4.707677759999569,1936,1360,497
4.710410390998732,1936,1356,508
4.713142520999099,2112,1438,558
4.715872026999932,2112,1447,548
4.718599657999221,2054,1479,568
4.721363704999021,2000,1424,527
4.724094418999812,1959,1392,511
4.7268251739988045,1942,1374,507
4.7295559300000605,1933,1328,478
4.732281351998608,2084,1437,559
4.735009398998955,2126,1456,555
4.737737612998899,2082,1474,563
4.740460994000387,2015,1456,547
4.743188623999231,1968,1399,511
4.745913671999006,1948,1392,511
4.748636926999097,1936,1345,490
4.751360598998872,2029,1409,542
4.75408689699907,2128,1455,559
4.756811318999098,2099,1467,558
4.7595387829987885,2032,1495,579
4.762272329999178,1984,1406,509
4.765003501999672,1954,1392,511
4.767731799000103,1936,1360,500
4.770459679999476,1939,1358,511
4.773185226998976,2112,1439,558
4.775911857999745,2109,1452,548
4.778640237998843,2056,1481,571
4.781406076999701,1997,1423,528
4.7841353329986305,1963,1392,510
4.786862547000055,1936,1372,507
4.789588843999809,1935,1325,478
4.7923158909998165,2096,1439,559
4.795048396999846,2128,1457,555
4.797775651999473,2081,1477,560
4.800499365999713,2019,1456,543
4.803225787998599,1969,1402,511
4.805963001999771,1943,1392,525
4.808686465999926,1934,1344,487
4.811400304999552,2027,1408,543
4.814096144000359,2127,1455,557
4.81678544100032,2096,1463,558
4.819473945999562,2034,1494,580
4.822163785000157,1985,1405,510
4.824853832000372,1952,1393,511
4.827545420999741,1936,1363,499
4.830233634998876,1933,1347,503
4.832930016000319,2107,1441,559
4.8356199379995815,2112,1450,548
4.83830802599914,2064,1479,565
4.8409947820000525,2001,1434,529
4.843683871000394,1966,1392,510
4.846372000998599,1939,1381,511
4.849058881998644,1935,1331,481
4.851745261999895,2059,1422,551
4.854433100999813,2121,1455,554
4.8571206479991815,2087,1469,560
4.8598125289991,2029,1483,563
4.862504991999231,1979,1396,505
4.865196081000249,1950,1393,511
4.867884002998835,1935,1357,496
4.870574091999515,1957,1367,511
4.873262388999137,2117,1445,556
4.875983062000159,2112,1455,549
4.878672941998957,2054,1484,571
4.881362823000018,1999,1423,526
4.884050869999555,1963,1392,509
4.886740250000003,1943,1373,500
4.889432922000196,1931,1328,480
4.892121135999332,2082,1435,560
4.894808766999631,2128,1456,556
4.897496980000142,2087,1472,561
4.900184193998939,2018,1467,555
4.902872740998646,1971,1397,506
4.9055595390000235,1947,1392,511
4.908245210999667,1936,1348,491
4.910938257999078,1984,1390,528
4.913630637998722,2109,1446,554
4.9163177689988515,2093,1456,551
4.919013482998707,2032,1487,576
4.9217040709991124,1985,1409,511
4.92439136899884,1955,1392,511
4.927081456999076,1938,1370,501
4.929771088000052,1935,1331,491
4.932457551998596,2087,1435,560
4.935146306999741,2111,1447,549
4.937835312999596,2063,1471,560
4.940523526000106,2010,1446,541
4.943213656999433,1968,1394,508
4.945902829000261,1945,1386,511
4.9485902929991425,1936,1341,489
4.951278881999315,2011,1402,539
4.953967678999106,2112,1450,555
4.956656643000315,2086,1458,557
4.9593437730000005,2030,1488,576
4.962038403999031,1981,1402,505
4.96472811700005,1954,1391,511
4.967417497999122,1937,1361,496
4.9701073369997175,1934,1344,498
4.972794383998917,2095,1431,558
4.975482013998771,2107,1445,546
4.97816985299869,2055,1473,566
4.980857649999962,2000,1431,533
4.983547155999986,1966,1391,511
4.986237453000285,1941,1379,511
4.9889251249987865,1934,1334,483
4.991615547000038,2047,1414,552
4.994304510999427,2123,1453,556
4.9969903499986685,2093,1466,559
4.99967864700011,2027,1487,569
5.002365902999372,1981,1399,507
5.005052074999185,1953,1393,511
5.007739413000309,1936,1360,494
5.01049766899996,1940,1360,511
5.013219132999438,2101,1441,555
5.015948054999171,2096,1445,548
5.018641726999704,2046,1474,571
5.0213538159987365,1994,1418,527
5.024044821999269,1963,1389,511
5.0267344519998005,1940,1371,503
5.029422415998852,1935,1324,478
5.032109296000272,2075,1429,557
5.034798509999746,2123,1449,547
5.037487515999601,2079,1471,560
5.040174395999202,2021,1462,551
5.042869527000221,1967,1397,507
5.045630198999788,1953,1391,511
5.048358912999902,1937,1350,491
5.051049167999736,1997,1392,530
5.0537427159997605,2093,1441,550
5.056431970999256,2077,1447,550
5.059119350999026,2022,1478,573
5.061817064999559,1984,1399,503
5.064510195999901,1955,1389,511
5.067198200998973,1936,1362,503
5.069887497998934,1923,1331,495
5.072574461999466,2063,1424,554
5.075262550999469,2077,1429,543
5.077951806999408,2015,1445,547
5.080640811998819,1987,1424,529
5.083330526000282,1958,1379,498
5.086017614999946,1941,1375,508
5.08870382799978,1931,1330,480
5.0913926670000365,2047,1405,537
5.0940802980003355,2151,1459,558
5.096767387,2118,1473,562
5.099453599999833,2052,1503,582
5.102141355999265,1991,1409,510
5.104827360999479,1959,1397,525
5.107519949999187,1941,1365,498
5.110208288999274,1936,1355,509
5.1128976279997005,2117,1445,560
5.115591007999683,2126,1456,554
5.1182796390003205,2067,1485,571
5.120967769000345,2006,1437,537
5.123656566000136,1967,1394,511
5.126343571999314,1941,1386,511
5.129030451998915,1936,1334,484
5.131718708000335,2061,1424,547
5.13440529699983,2126,1456,558
5.137093551998987,2093,1471,560
5.139785973999096,2027,1482,563
5.142480438000348,1978,1399,507
5.145174651999696,1955,1393,511
5.147866156999953,1934,1359,496
5.1505546209991735,1952,1369,511
5.153242835000128,2112,1444,560
5.155965506999564,2109,1455,551
5.158652678999715,2053,1482,576
5.161371184998643,1998,1424,528
5.164065648999895,1961,1393,511
5.16675519599994,1942,1376,506
5.16944499300007,1935,1328,480
5.172133582000242,2070,1434,559
5.1748246289989766,2113,1449,554
5.177756176999537,2070,1470,560
5.180477306999819,2009,1455,542
5.183173228999294,1968,1394,510
5.185871650999616,1939,1373,503
5.188562948998879,1933,1331,471
5.191255536999961,2019,1395,528
5.193944417998864,2129,1452,543
5.196634006999375,2104,1461,547
5.199326136998934,2037,1489,567
5.202018767999107,1984,1403,496
5.204706606999025,1952,1392,505
5.207395986999472,1936,1360,496
5.2101058259995625,1929,1343,496
5.212816330998976,2096,1431,549
5.215517544998875,2105,1443,541
5.218214800999704,2055,1472,558
5.220908180999686,1995,1425,523
5.223603436999838,1962,1387,497
5.226298526000392,1936,1376,500
5.228993405999063,1929,1329,470
5.231691912000315,2053,1419,539
5.234387041999071,2118,1449,541
5.237079005999476,2082,1462,551
5.239773969999078,2020,1477,559
5.24246543299887,1974,1393,496
5.245157272000142,1943,1388,505
5.2478528190004,1929,1350,487
5.250544074999198,1946,1360,508
5.253231871998651,2112,1438,547
5.256025627999406,2106,1451,541
5.258728175000215,2043,1479,560
5.261422014000345,1987,1415,511
5.264114644000074,1955,1388,499
5.266809691000162,1935,1366,496
5.269505279999066,1927,1318,467
5.272195911000381,2078,1427,549
5.274889790998714,2113,1450,542
5.277584254999965,2071,1467,554
5.280275343999165,2006,1453,538
5.282966348999253,1965,1392,501
5.285660104998897,1937,1386,510
5.288353359999746,1927,1342,480
5.291049823999856,2000,1392,528
5.29374541299876,2114,1446,546
5.296435627000392,2095,1456,543
5.2991307159991266,2032,1485,567
5.30182655399949,1981,1401,501
5.304518809998626,1949,1387,502
5.30720964899956,1930,1360,495
5.309902487999352,1920,1331,486
5.312594200999229,2096,1433,553
5.315286914999888,2113,1445,542
5.317982836999363,2064,1472,559
5.320674925998901,2000,1435,530
5.323372765000386,1958,1391,497
5.326066645999163,1936,1378,500
5.328759193000224,1924,1331,472
5.331454405999466,2032,1405,533
5.3341485370001465,2128,1451,545
5.336842626000362,2096,1464,548
5.339537964999181,2029,1489,564
5.3422333449998405,1975,1395,496
5.34492364200014,1941,1390,506
5.347618855999826,1926,1354,489
5.350311152998984,1930,1349,497
5.353002742000172,2111,1435,547
5.355693747998885,2112,1445,538
5.358383920000051,2056,1475,560
5.361073009000393,1995,1424,511
5.3637633889993594,1954,1387,502
5.3664742700002535,1931,1370,501
5.369166941998628,1921,1322,471
5.371862280999267,2064,1424,544
5.374556994000159,2128,1450,543
5.377250374998766,2086,1466,550
5.379970046999006,2018,1471,554
5.3826648439990095,1968,1392,497
5.385363600000346,1936,1386,505
5.388056396999673,1926,1344,482
5.390753443998619,1967,1375,511
5.393450907999068,2106,1440,544
5.396145912998691,2096,1449,544
5.398841668999012,2032,1475,563
5.4015361740002845,1982,1407,507
5.406089684000108,1945,1385,505
5.408789230999901,1920,1323,474
5.411527111000396,2032,1399,533
5.414240033998794,2125,1442,547
5.416937246998714,2091,1457,554
5.419635669999479,2022,1482,561
5.422336050000013,1969,1392,496
5.425029513999107,1937,1383,500
5.427724686000147,1923,1349,481
5.430421774999559,1933,1354,503
5.433113779999985,2115,1437,546
5.435808951999206,2113,1449,539
5.438503874998787,2053,1475,560
5.441199797000081,1990,1420,511
5.443888510999386,1950,1387,502
5.446590640998693,1929,1366,496
5.449324229999547,1919,1317,466
5.452022235998811,2066,1424,547
5.454716573998667,2119,1446,538
5.4574112049995165,2075,1467,550
5.460102709999774,2010,1459,543
5.462795090999862,1964,1390,496
5.4654874299994844,1935,1382,505
5.46817910199934,1919,1341,481
5.4708702320003795,1973,1378,511
5.473566112999833,2114,1440,545
5.476260576999266,2096,1450,541
5.478957039998932,2032,1479,567
5.481655878998936,1981,1405,501
5.48435259299913,1942,1386,499
5.487048015000255,1924,1360,491
5.489744937000069,1919,1323,476
5.492437109998718,2096,1430,551
5.495129947999885,2128,1450,543
5.497829328998705,2071,1472,559
5.500521459000083,2003,1440,535
5.503216422999685,1957,1390,497
5.505912761998843,1931,1379,503
5.50860455899965,1917,1329,477
5.511303814999337,2019,1399,528
5.513999069999045,2127,1447,544
5.516692908999175,2096,1461,549
5.519390665000174,2029,1488,574
5.5220871700003045,1972,1394,496
5.524779841998679,1936,1381,503
5.527476514000227,1921,1351,491
5.5301716859994485,1917,1338,495
5.532862942000065,2102,1433,547
5.535559238998758,2117,1446,539
5.538253827999142,2059,1472,560
5.540946375000203,1981,1415,506
5.543641838999974,1950,1386,498
5.546338385998752,1926,1371,500
5.549034182999094,1916,1323,466
5.551727063999351,2060,1417,538
5.554421693999757,2130,1450,543
5.557113574999676,2091,1463,551
5.5598062469998695,2018,1473,553
5.56249896099871,1968,1392,494
5.565190383000299,1935,1385,503
5.567886179998823,1919,1344,481
5.570581101999778,1945,1360,502
5.5732736909994856,2113,1438,543
5.576000404998922,2102,1447,537
5.578699784999117,2039,1475,560
5.5813964159988245,1981,1410,507
5.584088796000287,1942,1382,498
5.5867863849998685,1921,1358,494
5.589482641000359,1914,1312,467
5.592172228998606,2078,1424,548
5.59486944299897,2115,1445,542
5.5975663239987625,2066,1465,551
5.600259120999908,2001,1449,535
5.602954875999785,1957,1389,497
5.605656089999684,1930,1381,502
5.608349512000132,1914,1335,479
5.6110580599997775,1997,1390,528
5.613758814999528,2119,1443,545
5.616452195999955,2096,1456,543
5.61914653399981,2031,1484,567
5.621841497999412,1973,1397,496
5.624533836999035,1937,1382,500
5.6272299680003925,1920,1357,494
5.629927972999212,1914,1328,489
5.632620103999216,2099,1430,551
5.635316150999643,2119,1445,540
5.638011822999033,2064,1472,560
5.640707161999671,1998,1430,527
5.643404500999168,1952,1386,498
5.646099630999743,1926,1374,499
5.648793262000254,1915,1324,470
5.651487641998756,2032,1402,533
5.654181480998886,2121,1445,546
5.656874569998763,2081,1458,547
5.659568658998978,2017,1481,560
5.662262664000082,1967,1392,495
5.664954293999472,1935,1381,506
5.667649049999454,1918,1344,487
5.670342929999606,1921,1347,499
5.673039477998827,2117,1434,549
5.67573689999881,2115,1446,539
5.678433946999576,2054,1473,562
5.6811269110003195,1989,1419,511
5.683821832999456,1946,1383,501
5.686517504998847,1923,1367,501
5.689212676999887,1912,1317,467
5.69191839099949,2064,1420,545
5.694614146999811,2119,1445,545
5.69733565199931,2077,1461,551
5.700030907999462,2007,1459,549
5.702727079999022,1961,1390,496
5.705425293999724,1930,1380,506
5.708117923999453,1914,1337,480
5.710813304998737,1968,1371,511
5.713508934999481,2118,1441,545
5.71620052399885,2099,1454,541
5.718894653999087,2033,1479,565
5.721588618000169,1978,1406,502
5.724281623999559,1940,1385,503
5.7269780459992035,1920,1358,496
5.729674676000286,1911,1317,479
5.732366889998957,2089,1428,553
5.735062895999363,2117,1444,539
5.737759609999557,2065,1467,557
5.74045248999937,2000,1442,529
5.743146745999184,1951,1387,496
5.745843750999484,1926,1377,503
5.748536005999995,1914,1328,474
5.75123009500021,2017,1393,528
5.753925351000362,2128,1449,549
5.756618064999202,2097,1458,553
5.759309986999142,2026,1488,574
5.762001783999949,1969,1395,499
5.764694580999276,1936,1386,505
5.7673869199988985,1918,1353,489
5.770084716999918,1910,1334,492
5.772778972999731,2099,1425,548
5.775475477999862,2111,1442,535
5.778169066999908,2056,1469,558
5.780860531000144,1984,1424,524
5.783555578000232,1947,1381,498
5.786251416999221,1923,1365,501
5.788943796998865,1903,1311,464
5.791639428000053,2033,1408,539
5.794338349998725,2119,1456,557
5.797031688998686,2079,1466,558
5.799726401999578,2014,1477,560
5.802420699999857,1968,1392,503
5.80511599700003,1934,1387,511
5.807812585999272,1921,1338,483
5.810508298998684,1936,1361,511
5.813201637998645,2064,1424,551
5.8158952689991565,2055,1426,542
5.819432567999684,2011,1456,563
5.822144697998738,1967,1397,511
5.824839286999122,1923,1363,509
5.827535541999168,1909,1335,491
5.8302332980001665,1907,1330,497
5.832929136999155,2085,1419,550
5.83562505899863,2087,1428,541
5.838321481000094,2032,1458,566
5.841013403000034,1982,1411,523
5.843708159000016,1945,1375,498
5.846402163999301,1923,1362,509
5.849094711000362,1914,1316,477
5.851790758999414,2055,1411,553
5.85448884699872,2117,1443,553
5.857186686000205,2076,1461,560
5.859880107998833,2009,1467,560
5.862572863999958,1967,1389,502
5.865264910999031,1936,1383,511
5.867994082998848,1921,1344,494
5.8706898799991905,1962,1370,527
5.873386219000167,2105,1438,557
5.876079140998627,2095,1449,548
5.878777730000365,2035,1475,571
5.881475569000031,1982,1409,511
5.884161657999357,1943,1383,511
5.886857829998917,1919,1361,503
5.889555960999132,1919,1314,481
5.892251548999411,2066,1424,559
5.894945762998759,2089,1427,540
5.897644601998763,2055,1459,561
5.900339648998852,1999,1441,542
5.903034945999025,1953,1386,507
5.9057309519994305,1932,1377,511
5.908423331999074,1919,1333,491
5.911119378999501,1997,1392,538
5.913813884999399,2105,1437,553
5.916505682000206,2083,1450,557
5.91920502100038,2019,1479,578
5.921902734999094,1970,1393,507
5.924597406999965,1939,1381,511
5.927294121000159,1923,1351,499
5.929993167999783,1920,1331,496
5.932689422999829,2091,1427,558
5.9353850959996635,2098,1439,548
5.9380791839994345,2045,1467,570
5.940771898000094,1993,1424,531
5.943468653998934,1952,1383,509
5.946164867998959,1930,1371,511
5.948856998000338,1915,1325,483
5.951551254000151,2026,1406,549
5.954243217000112,2096,1438,550
5.956934014999206,2063,1450,555
5.959625311999844,2007,1471,565
5.9623207339991495,1967,1389,501
5.965015238998603,1936,1381,510
5.967707077999876,1923,1345,489
5.97040266699878,1936,1357,511
5.973095588999058,2087,1426,550
5.975789719999739,2086,1434,544
5.978487475000293,2032,1467,565
5.981183396999768,1979,1408,524
5.983880861000216,1943,1377,505
5.986575824999818,1929,1362,503
5.9892684549995465,1920,1316,474
5.991993752999406,2057,1420,556
5.994689883000319,2103,1440,550
5.997385888998906,2064,1459,560
6.000081143998614,2001,1456,549
6.002776274999633,1963,1385,501
6.005470946998685,1936,1381,511
6.008162826999978,1922,1341,489
6.0109098329994595,1968,1379,529
6.013644337999722,2098,1437,557
6.016338801999154,2083,1446,552
6.0190347239986295,2021,1475,574
6.02173097999912,1971,1396,505
6.024425485000393,1943,1382,511
6.027123824000228,1929,1360,499
6.029821120999259,1919,1327,491
6.03251341899886,2087,1430,560
6.035207007000281,2103,1442,551
6.0379000550001365,2055,1468,563
6.040591560000394,1999,1433,537
6.043287148999298,1955,1387,509
6.04598111300038,1934,1376,511
6.048672950999389,1922,1330,485
6.051368499000091,2025,1399,539
6.054155920999619,2111,1446,554
6.056913342999906,2077,1457,559
6.059609514999465,2017,1477,567
6.062300313000378,1969,1392,504
6.064994525999282,1939,1387,511
6.067688281998926,1927,1349,496
6.070378786998845,1936,1357,511
6.0730694599988055,2102,1434,555
6.0757615479997185,2097,1442,549
6.078451011999277,2039,1473,570
6.081138642999576,1985,1417,527
6.083828314998755,1953,1386,510
6.086517028999879,1934,1373,509
6.089206491998993,1920,1323,479
6.091896289999568,2064,1424,557
6.094587461999254,2115,1446,551
6.097305342000254,2071,1463,560
6.09999809799956,2009,1463,556
6.102688519998992,1965,1392,507
6.105377858999418,1941,1386,523
6.108066697999675,1925,1344,493
6.110755869998684,1971,1376,528
6.113449249998666,2108,1438,549
6.116144546998839,2095,1446,543
6.118836593999731,2032,1474,569
6.121526932998677,1983,1406,510
6.124217147000309,1946,1382,506
6.126906735999,1927,1360,502
6.12959732499985,1921,1319,485
6.132286246998774,2080,1424,551
6.134975461000067,2113,1451,553
6.137664300000324,2065,1470,567
6.140358012999059,2001,1447,547
6.143046518998744,1964,1392,507
6.145735398999022,1936,1383,511
6.1484247379994486,1927,1340,489
6.151113576999705,2003,1397,538
6.1538042909996875,2114,1446,559
6.156493880000198,2087,1456,554
6.15918055200018,2027,1486,577
6.161867056998744,1974,1402,510
6.164561520999996,1947,1388,511
6.167255067999577,1931,1360,503
6.169945948999157,1914,1326,494
6.172632996000175,2097,1435,560
6.175324625999565,2113,1446,550
6.178015172999949,2065,1472,567
6.180702554000163,1999,1434,531
6.183390643000166,1959,1391,509
6.186080772999048,1936,1379,511
6.188770778999242,1926,1330,481
6.191459700999985,2031,1409,547
6.194148790000327,2112,1446,556
6.19683600299868,2080,1458,558
6.199526633999994,2016,1484,572
6.20221484799913,1970,1392,506
6.204904561998774,1941,1387,511
6.207594899999094,1927,1353,496
6.210283447999245,1933,1353,511
6.212998744998913,2097,1434,556
6.215712584000357,2100,1444,548
6.218412296999304,2039,1472,570
6.221106427999985,1987,1417,526
6.223803724999016,1952,1383,511
6.226501188999464,1931,1367,511
6.229194902998643,1927,1323,479
6.231890574999852,2064,1422,554
6.234583371999179,2113,1445,553
6.237274752998928,2073,1463,560
6.24007488299867,2014,1466,557
6.242771638999329,1966,1391,509
6.245469477998995,1937,1386,511
6.2481645659991045,1927,1343,491
6.250860404999912,1979,1381,531
6.253556452000339,2111,1441,558
6.256249457999729,2095,1454,552
6.258941672000219,2018,1472,565
6.261632634999842,1979,1405,511
6.264328141000078,1951,1388,511
6.267019479999362,1933,1360,504
6.269714819000001,1923,1328,487
6.272407115999158,2087,1431,560
6.275100662998739,2114,1447,547
6.27779533499961,2064,1467,560
6.280490715998894,2001,1441,540
6.283190178999575,1963,1392,511
6.2858862269986275,1937,1383,511
6.288577649000217,1931,1338,487
6.2912704039990786,2025,1404,541
6.293965742999717,2117,1454,559
6.296658706998642,2090,1461,559
6.299353712000084,2029,1488,576
6.30205234299865,1978,1398,506
6.30474405699897,1950,1392,511
6.307437645999016,1935,1360,500
6.310131901000204,1930,1347,510
6.312823864998791,2106,1436,560
6.315519079000296,2111,1447,551
6.3182136670002365,2053,1472,564
6.32090629799859,1998,1427,528
6.323601136999059,1957,1389,511
6.326295933999063,1936,1375,511
6.328988272998686,1930,1328,481
6.331680152999979,2062,1422,557
6.334374116999243,2123,1451,555
6.337066288999267,2085,1467,560
6.339761211000223,2021,1475,565
6.342455717000121,1971,1395,508
6.345149388998834,1943,1390,526
6.347844977999557,1931,1350,496
6.350540067000111,1955,1371,528
6.353232989000389,2112,1441,558
6.355966785999044,2101,1453,551
6.35866462499871,2046,1485,574
6.3613617139999405,1985,1418,511
6.364053968998633,1955,1389,511
6.3667438909997145,1936,1367,509
6.369435896998766,1925,1323,485
6.37212644399915,2070,1427,560
6.374821366000106,2109,1442,554
6.377518496999983,2064,1463,561
6.380211876999965,2005,1451,545
6.382906090999313,1967,1392,510
6.385600387999148,1938,1385,511
6.388292226998601,1933,1341,491
6.390986648999387,1998,1392,536
6.393681612998989,2105,1440,556
6.396372409999458,2083,1454,559
6.399066456999208,2026,1485,577
6.401761838000311,1981,1397,511
6.404453676999765,1950,1386,511
6.4071483070001705,1936,1360,501
6.40984556299918,1922,1331,496
6.412540067998634,2094,1434,560
6.415236198999992,2110,1446,553
6.417932661999657,2062,1472,567
6.420623584999703,2000,1430,534
6.423318506998839,1963,1392,510
6.42601367899988,1936,1381,522
6.428704850999566,1929,1333,480
6.431399814999168,2037,1411,549
6.434093653999298,2119,1453,556
6.436784534000253,2092,1462,558
6.439482539999517,2027,1488,572
6.44217966999895,1978,1397,506
6.444873008998911,1949,1391,511
6.447569555999507,1933,1356,496
6.450266394998835,1936,1356,511
6.452958649999346,2102,1439,559
6.455648655999539,2102,1446,551
6.458345119999649,2047,1473,573
6.461038041999927,1994,1423,528
6.463730546998704,1962,1388,508
6.466420802998982,1938,1376,511
6.469112183000107,1926,1326,481
6.4718041050000465,2063,1424,557
6.474497860999691,2118,1451,551
6.477191199999652,2079,1467,560
6.479883705000248,2015,1470,559
6.482580085999871,1971,1393,505
6.485272465999515,1943,1391,523
6.487996054998803,1934,1349,496
6.490691851999145,1972,1380,527
6.493385857998874,2109,1446,560
6.496079112999723,2095,1455,555
6.498772368999198,2036,1475,573
6.501466165998863,1986,1409,511
6.504159504998825,1957,1390,522
6.506856343999971,1931,1367,510
6.509551015999023,1929,1328,494
6.512242479999259,2063,1424,560
6.514938276999601,2073,1424,539
6.5176307410001755,2046,1458,562
6.520321578998846,1998,1436,541
6.523016626999379,1963,1384,501
6.525710382000398,1946,1386,511
6.5284007619993645,1934,1341,491
6.531095684998945,1979,1392,538
6.533788523000112,2037,1422,549
6.536481986999206,2019,1424,544
6.53917707599976,1984,1457,570
6.541869372998917,1953,1375,502
6.544559919999301,1937,1366,507
6.547252508999009,1930,1346,496
6.549950889999309,1927,1328,498
6.552642978998847,2117,1435,557
6.555336026000077,2132,1453,547
6.558028239998748,2075,1481,569
6.560718827999153,2011,1439,531
6.56341062499996,1966,1393,511
6.566100381000069,1943,1385,522
6.568789802999163,1934,1334,484
6.571480349999547,2055,1418,554
6.574173564000375,2133,1456,559
6.576865860999533,2096,1472,561
6.579560741998648,2033,1488,574
6.58225362200028,1981,1401,511
6.584943128000305,1950,1393,526
6.587636591999399,1935,1360,498
6.590330514000016,1939,1361,523
6.593022185999871,2112,1442,555
6.595716775000255,2108,1452,546
6.598409779999201,2054,1481,574
6.6011029519995645,1999,1423,528
6.603796498999145,1963,1390,510
6.606515796998792,1936,1373,507
6.609210968999832,1927,1328,480
6.611916140998801,2065,1427,554
6.614609647000179,2112,1447,548
6.617331859999467,2070,1466,560
6.620024324000042,2014,1461,555
6.622719537999728,1970,1392,505
6.62541287699969,1947,1385,510
6.628103381999608,1935,1345,495
6.630796387998998,1983,1387,533
6.633491934999256,2111,1445,558
6.636185564999323,2093,1455,555
6.6388801539997075,2032,1483,576
6.641574242999923,1984,1408,511
6.64426499900037,1951,1390,511
6.64696171200012,1936,1364,503
6.649655760000314,1931,1329,492
6.652347306999218,2086,1435,560
6.655039895998925,2112,1449,551
6.657786734000183,2064,1472,562
6.660519531998943,2005,1443,539
6.663252911999734,1965,1392,511
6.66598466799951,1941,1387,523
6.66867850699964,1935,1337,486
6.671368346000236,2033,1410,546
6.674065475999669,2114,1450,556
6.6767558559986355,2086,1463,557
6.6794479039999715,2023,1489,573
6.682138950998706,1976,1398,503
6.684826247999808,1949,1390,511
6.687516711999706,1934,1359,499
6.690206592000322,1936,1355,510
6.692894347999754,2092,1434,555
6.695584727998721,2096,1441,548
6.698277984000015,2045,1472,562
6.700967321999997,1991,1422,527
6.703656952999154,1962,1391,511
6.706347666999136,1936,1376,510
6.709035588999541,1931,1328,478
6.711724885999502,2053,1423,551
6.7144212249986595,2110,1447,554
6.717114646999107,2074,1461,557
6.719804278000083,2016,1470,559
6.722492490998775,1973,1392,501
6.725178496999433,1948,1391,511
6.727869626998654,1927,1344,483
6.730559757999799,1963,1375,511
6.733247930000289,2093,1437,549
6.735969601999386,2070,1431,532
6.738660732999051,2032,1475,568
6.741371362999416,1985,1409,511
6.744060659999377,1953,1383,511
6.746751081998809,1937,1365,501
6.74944096299987,1926,1321,481
6.752127884999936,2079,1433,559
6.754817765999178,2112,1449,550
6.757507520998843,2069,1469,563
6.76019827699929,2010,1439,544
6.762886032000097,1968,1383,502
6.765577954000037,1943,1379,511
6.76826895999875,1931,1339,489
6.770957881999493,1998,1392,535
6.773646845998883,2114,1446,555
6.776334350999605,2095,1455,556
6.779020772999502,2032,1485,577
6.781710236999061,1985,1407,508
6.784398200999931,1952,1392,511
6.787086705999172,1936,1364,499
6.789776794999852,1930,1331,495
6.7924702589989465,2097,1438,560
6.795160888999817,2114,1450,553
6.797849978000158,2057,1473,565
6.8005370249993575,2003,1439,539
6.803225697998641,1968,1392,511
6.805913744999998,1940,1385,511
6.808613458999389,1933,1333,490
6.811302588999752,2031,1406,541
6.814048260999698,2118,1453,554
6.816739308000251,2090,1463,558
6.819431605999853,2027,1488,574
6.822120652999729,1978,1399,508
6.824821116999374,1950,1391,511
6.827523664000182,1935,1359,499
6.830234502998792,1936,1354,507
6.832931965998796,2101,1424,544
6.835626513999159,2102,1437,535
6.8383264359999885,2045,1469,560
6.841015857999082,1989,1415,511
6.843706071998895,1957,1383,497
6.8463945769999555,1937,1371,503
6.84909129100015,1926,1323,468
6.851788422000027,2082,1424,549
6.854482259999713,2138,1455,545
6.857167931999356,2093,1472,559
6.859860145999846,2021,1474,551
6.8625553179990675,1974,1395,501
6.865248324000277,1944,1391,507
6.867970412999057,1915,1341,478
6.870660667998891,1981,1379,511
6.873364590999699,2129,1451,551
6.876052513000104,2113,1459,545
6.8787418929987325,2047,1488,565
6.881431023999539,1990,1417,506
6.884116945999267,1952,1392,506
6.886806992999482,1934,1366,496
6.889495081999485,1926,1328,478
6.892184295998959,2095,1437,554
6.894873633998941,2128,1455,545
6.8975616810002975,2077,1474,559
6.900248019999708,2014,1454,538
6.902938608998738,1954,1385,496
6.90562690600018,1938,1387,509
6.908314287000394,1926,1340,483
6.911001500999191,2014,1397,531
6.913689630999215,2141,1452,548
6.916384553000171,2105,1461,551
6.919079559000238,2035,1489,571
6.921767313999226,1984,1399,501
6.924458319999758,1947,1392,510
6.927147074999084,1930,1361,496
6.929836330999024,1920,1335,490
6.932521544000338,2110,1438,552
6.93521092499941,2128,1455,541
6.937899304999519,2073,1478,563
6.940584601999944,2005,1440,531
6.943271815998742,1962,1392,502
6.945960237999316,1936,1380,503
6.948646618999192,1922,1332,477
6.951334373999998,2041,1408,539
6.954021212999578,2135,1456,555
6.956709468999179,2101,1469,553
6.959400223999182,2033,1493,570
6.962086895999164,1978,1401,496
6.964775317999738,1942,1387,506
6.967463156999656,1926,1355,490
6.970151495999744,1926,1350,499
6.972842917999515,2117,1440,551
6.975530714998968,2125,1454,543
6.978219512999203,2064,1482,561
6.98091131000001,2000,1429,511
6.983598939999865,1956,1389,502
6.98628765399917,1934,1374,499
6.988978575998772,1920,1325,470
6.991670039999008,2074,1424,545
6.994359378999434,2140,1457,547
6.9970455929997115,2096,1474,558
6.999736681000286,2027,1481,558
7.002426103999824,1971,1398,503
7.005113526000059,1939,1391,511
7.0078001559995755,1923,1347,485
7.010487827999896,1955,1370,511
7.013226708999355,2127,1447,551
7.015972630999386,2112,1456,543
7.018664219998755,2051,1485,565
7.021378059000199,1990,1418,510
7.024068314000033,1948,1390,509
7.026760986000227,1930,1365,496
7.029450824999003,1919,1318,478
7.032137080999746,2086,1429,551
7.034826711000278,2123,1449,540
7.037515549998716,2072,1471,558
7.040203930999269,2005,1454,537
7.042892894000033,1962,1392,499
7.04558223299864,1936,1381,511
7.048268738999468,1920,1338,482
7.050957493998794,2005,1393,528
7.053649082999982,2128,1451,551
7.056337922000239,2102,1461,546
7.059027719000369,2033,1488,571
7.0617760160002945,1979,1405,500
7.064509480000197,1941,1390,506
7.067200610999862,1925,1359,493
7.069890407999992,1917,1333,491
7.072582830000101,2106,1435,554
7.075271834999512,2117,1445,542
7.077962506999029,2063,1472,560
7.080649220999476,2000,1431,527
7.083340268000029,1952,1391,505
7.086032815999715,1929,1376,506
7.088721445999909,1920,1328,471
7.0914109099994675,2041,1408,538
7.094099456999174,2128,1447,545
7.0967862119996425,2091,1459,551
7.099475384999096,2023,1483,560
7.102162389999648,1970,1394,496
7.104848270999355,1934,1387,507
7.1075375259988505,1922,1351,487
7.110225282000101,1927,1351,503
7.112912619999406,2111,1434,550
7.115601458999663,2110,1446,541
7.118291548000343,2047,1477,560
7.120978386999923,1987,1419,511
7.123667600999397,1947,1385,500
7.126358605999485,1926,1367,497
7.129046694999488,1916,1318,466
7.131737325000358,2059,1419,545
7.13442508099979,2115,1443,545
7.137112627999159,2073,1460,554
7.139835924999716,2007,1463,553
7.142560763999427,1965,1390,496
7.14526222799941,1933,1381,506
7.147995441999228,1921,1355,496
7.150696196998979,1968,1383,529
7.153391285999533,2105,1443,559
7.156084917000044,2089,1453,550
7.158781504998842,2029,1476,574
7.161474968999755,1978,1404,510
7.164166349999505,1945,1381,507
7.1668628139996144,1921,1360,501
7.169558693998624,1917,1321,485
7.172252407999622,2068,1424,554
7.174946371998885,2096,1437,547
7.177645419000328,2053,1461,559
7.180340633000014,1995,1434,531
7.183038429999215,1957,1386,501
7.185734976999811,1935,1377,509
7.188426315999095,1923,1329,486
7.191120571000283,1984,1388,534
7.193818159999864,2046,1423,544
7.196512040998641,2023,1425,542
7.199207170999216,1983,1457,567
7.201901676999114,1942,1371,497
7.204593016000217,1923,1361,506
7.207288728999629,1919,1339,493
7.209981734999019,1919,1328,496
7.212676031998853,2111,1424,554
7.215374661998794,2117,1443,546
7.2180713759989885,2064,1472,565
7.220763589999478,1998,1424,528
7.223456178999186,1961,1390,511
7.226151225999274,1931,1375,511
7.228842022999743,1911,1327,483
7.231539319998774,2064,1420,554
7.234235075999095,2135,1453,555
7.23692724799912,2096,1472,560
7.239624003999779,2025,1485,565
7.2423195089995716,1973,1395,505
7.2450140149994695,1940,1392,511
7.24771022799905,1929,1352,493
7.250405566999689,1943,1366,511
7.253098572999079,2102,1439,557
7.255792328000098,2096,1443,551
7.258489666999594,2037,1475,571
7.261182672998984,1983,1417,528
7.263875761000236,1949,1383,509
7.266565891999562,1931,1363,505
7.269252396999946,1921,1319,476
7.272043069999199,2070,1428,560
7.274735741999393,2114,1447,550
7.277431205999164,2069,1467,563
7.2801245439986815,2004,1454,550
7.282817841998622,1965,1392,509
7.285514305000106,1936,1386,524
7.288206518998777,1925,1339,490
7.2908992749999015,1993,1392,535
7.293594446999123,2107,1441,557
7.296284993999507,2087,1451,553
7.298979290999341,2023,1482,576
7.3016749219987105,1980,1399,511
7.304366802000004,1946,1385,511
7.307063266000114,1927,1360,498
7.309761229998912,1925,1329,496
7.312455776998831,2086,1430,560
7.315152073999343,2101,1442,548
7.317847495998649,2046,1470,567
7.320535335000386,1996,1430,539
7.3232274660003895,1953,1387,506
7.325923095999315,1935,1376,511
7.328617851999297,1924,1330,481
7.331312565000189,2026,1405,544
7.3340058630001295,2110,1443,555
7.336697700999139,2075,1456,553
7.339393248999841,2014,1483,571
7.342089878999104,1971,1392,503
7.344782259999192,1943,1382,511
7.347477389999767,1929,1351,496
7.35017268699994,1932,1351,511
7.352864525999394,2087,1430,557
7.355557281998699,2089,1438,546
7.358252578998872,2035,1467,567
7.360944833999383,1986,1414,525
7.363638505999916,1953,1383,511
7.36633176199939,1935,1368,509
7.369023059000028,1922,1322,478
7.371714355998847,2045,1417,549
7.374408277999464,2097,1437,546
7.377100658999552,2064,1456,560
7.379791913999725,2000,1457,556
7.382486835998861,1965,1387,500
7.3851787589992455,1936,1380,511
7.387873972000307,1923,1344,491
7.390568060998703,1967,1370,527
7.393260607999764,2098,1435,554
7.395977571999538,2087,1443,547
7.398670327998843,2031,1473,569
7.401365542000349,1979,1405,511
7.404059754999253,1950,1383,511
7.406754677998833,1931,1360,502
7.409450099999958,1924,1321,485
7.412141521999729,2069,1425,558
7.414836193998781,2094,1439,551
7.417532032999588,2055,1461,560
7.420224954999867,1999,1439,543
7.422920293998686,1959,1387,508
7.42561296599888,1936,1382,511
7.42830488799882,1926,1335,486
7.430998935000389,2003,1392,541
7.433694149000075,2106,1443,549
7.436386904999381,2080,1455,559
7.439083952000146,2019,1483,576
7.441780207000193,1974,1393,507
7.4444727129994135,1945,1386,511
7.447167842999988,1934,1357,498
7.449863681998977,1922,1338,501
7.452555103998748,2087,1428,557
7.455248610000126,2097,1440,547
7.457943698998861,2043,1469,562
7.460635286999604,1994,1425,534
7.463331375998678,1959,1385,505
7.4660246319999715,1937,1375,510
7.468715428998621,1925,1328,479
7.471405517999301,2033,1408,546
7.474097480999262,2108,1442,551
7.476789319998716,2071,1456,559
7.479481116999523,2016,1475,566
7.482176289999188,1969,1392,503
7.484869545000038,1939,1386,511
7.487565051000274,1929,1349,496
7.490259013999093,1941,1359,525
7.492948852999689,2106,1435,557
7.495642441999735,2101,1447,546
7.498336405998998,2042,1476,571
7.501031994999721,1991,1419,527
7.503730832999281,1958,1387,508
7.5064261719999195,1936,1371,507
7.509117510999204,1927,1325,477
7.511818891998701,2063,1424,555
7.514513854999677,2112,1445,547
7.517203485998834,2070,1463,560
7.519896075000361,2007,1460,549
7.522591704999286,1969,1392,507
7.525308293999842,1940,1386,511
7.528001049999148,1931,1344,495
7.530695387999003,1983,1382,528
7.533390643999155,2105,1442,559
7.536078732999158,2089,1452,548
7.538777697000114,2032,1477,574
7.541475619000266,1983,1407,511
7.544166915999085,1949,1387,511
7.546858712999892,1930,1363,501
7.549549884999578,1927,1328,489
7.552239016000385,2083,1430,559
7.55493302099967,2103,1446,551
7.557625276998806,2061,1469,563
7.560314989999824,2000,1438,539
7.563007953998749,1962,1391,509
7.56569995999962,1937,1383,503
7.568390714999623,1927,1335,487
7.571080928999436,2016,1401,534
7.573771309998847,2111,1445,554
7.576461773000119,2087,1456,557
7.57915186199898,2027,1488,578
7.581844158999957,1971,1398,507
7.584534080999219,1946,1389,511
7.587228086998948,1931,1359,499
7.589920508999057,1927,1343,506
7.592609264998828,2098,1433,558
7.5953023949987255,2112,1447,549
7.597998691999237,2055,1473,567
7.600690905999727,1999,1429,528
7.603387162000217,1961,1391,511
7.606086750000031,1936,1376,511
7.608784755999295,1931,1328,483
7.611482094998792,2038,1417,550
7.614175558999705,2111,1443,551
7.61687018900011,2075,1461,560
7.6195662779991835,2014,1474,560
7.62226282499978,1968,1392,504
7.6249533310001425,1941,1386,511
7.62764646100004,1935,1348,497
7.6303442169992195,1947,1363,525
7.633037263998631,2105,1439,557
7.635732476999692,2097,1449,551
7.638427566000246,2043,1476,570
7.641121822000059,1987,1418,523
7.643816451998646,1958,1389,511
7.64651133299958,1936,1367,507
7.649202337999668,1925,1321,479
7.651895719000095,2078,1430,557
7.654591974000141,2122,1449,549
7.657313604999217,2079,1469,561
7.66001073499865,2011,1459,551
7.662705990998802,1968,1395,508
7.665399245999652,1939,1389,526
7.668090793000374,1926,1344,491
7.670781507000356,1991,1390,535
7.673473220998858,2112,1445,558
7.676165017999665,2095,1456,557
7.678859689998717,2030,1482,576
7.681555987999673,1984,1405,511
7.684245992999422,1951,1390,511
7.6869412069991085,1936,1363,501
7.689636045999578,1927,1331,496
7.693112802999167,2085,1433,560
7.6958193499995105,2107,1447,551
7.698512314000254,2036,1472,576
7.7012042779988406,1987,1411,525
7.703897407998738,1955,1387,511
7.7065951639997365,1936,1364,508
7.709319793999384,1929,1324,480
7.712013549999028,2074,1431,559
7.714710471998842,2112,1447,549
7.71740581099948,2064,1467,563
7.720097108000118,2004,1451,547
7.7227939879994665,1968,1392,510
7.7254915769990475,1942,1388,511
7.728185415999178,1929,1343,492
7.7308818379988224,2000,1393,539
7.733578260000286,2112,1447,559
7.7362713490001624,2093,1455,556
7.738966687998982,2030,1485,577
7.741661276999366,1982,1399,509
7.744355032000385,1947,1389,511
7.747051704000114,1936,1361,498
7.7497468769997795,1923,1335,496
7.7524395899999945,2090,1427,551
7.75513447099911,2109,1448,547
7.757831101000193,2057,1472,564
7.760525189998589,2000,1435,532
7.763221154000348,1961,1390,507
7.7659175759999926,1941,1381,511
7.768609040000229,1929,1331,487
7.7712998789993435,2035,1412,547
7.7739915089987335,2123,1452,558
7.776683222999054,2090,1465,556
7.779374269999607,2031,1488,570
7.782069775999844,1977,1397,506
7.7847636559999955,1946,1387,511
7.787459494998984,1934,1357,496
7.7901667509995605,1936,1359,511
7.792864380999163,2106,1440,558
7.795563011999548,2110,1451,550
7.798260309000398,2051,1478,570
7.800952939000126,1997,1421,528
7.803647152999474,1964,1392,511
7.806341616998907,1937,1375,509
7.809032496999862,1928,1327,480
7.811727169999358,2070,1427,559
7.814421507999214,2122,1453,554
7.817114679999577,2083,1472,561
7.819809102998988,2018,1469,559
7.822509358000389,1971,1397,506
7.825202447000265,1949,1392,511
7.8278968689992325,1936,1349,496
7.830594625000231,1974,1380,528
7.833317546999751,2080,1435,554
7.836011718998634,2064,1441,550
7.838706890999674,2018,1472,570
7.841403771999467,1978,1399,510
7.8440946099999564,1950,1383,511
7.846787698999833,1930,1357,501
7.849482162999266,1920,1323,485
7.852176168998994,2074,1424,558
7.854875798999274,2096,1431,544
7.857571720998749,2054,1461,560
7.860263642998689,2000,1438,539
7.862956940998629,1965,1390,506
7.865651195999817,1937,1381,511
7.868341952000264,1929,1335,487
7.871033874000204,2032,1406,542
7.873723753999002,2142,1456,560
7.876415217999238,2112,1471,560
7.8791063070002565,2043,1500,580
7.881801145998907,1989,1408,511
7.884493400999418,1953,1394,525
7.887188947999675,1938,1363,503
7.889884244999848,1934,1348,506
7.892574625999259,2101,1439,560
7.895267714999136,2110,1451,555
7.897961929000303,2058,1479,573
7.900652641999841,2000,1431,534
7.903347855999527,1963,1392,511
7.906043819999468,1936,1379,511
7.908734783999535,1930,1330,485
7.9114289979988826,2042,1417,551
7.914121044999774,2109,1449,556
7.916816592000032,2075,1459,559
7.919516097999804,2018,1476,565
7.922211310999046,1974,1393,506
7.92490294199888,1946,1388,523
7.927597656000216,1933,1351,496
7.930292327999268,1949,1364,527
7.932984041999589,2096,1435,558
7.935679172000164,2094,1445,547
7.93837276100021,2037,1474,574
7.941063016000044,1984,1413,527
7.943756521999603,1957,1383,511
7.946450026998718,1936,1367,506
7.9491421160000755,1930,1322,476
7.951839037999889,2064,1425,557
7.954535543998645,2110,1443,556
7.9572285909998755,2064,1457,559
7.959947929999544,2007,1457,552
7.96264151899959,1968,1392,508
7.965359023999554,1945,1389,511
7.968052070998965,1931,1344,491
7.9707452849997935,1998,1391,535
7.973437456999818,2107,1443,559
7.976129504999335,2089,1453,555
7.978827592998641,2032,1484,576
7.98152484899947,1984,1406,511
7.984216353999727,1951,1390,511
7.986910984998758,1936,1362,507
7.989605406999544,1929,1333,496
7.9922941619988705,2087,1434,560
7.9949877509989165,2106,1446,548
7.997685964999619,2059,1470,562
8.00037880399941,1999,1437,537
8.003074350999668,1963,1391,510
8.005769147999672,1937,1377,511
8.008460611999908,1935,1334,488
8.01115507599934,2027,1407,546
8.013899915000366,2105,1446,554
8.016631128999506,2083,1457,557
8.019328133999807,2023,1482,565
8.022025222999218,1977,1393,501
8.024717936999878,1946,1389,511
8.027411776000008,1933,1354,497
8.030109197999991,1937,1359,511
8.032802452999022,2096,1431,555
8.035500459000104,2094,1443,546
8.038196006000362,2035,1471,571
8.040887969998948,1989,1419,528
8.043583558999671,1959,1387,511
8.04627698100012,1939,1370,505
8.048968027998853,1927,1325,475
8.05166224200002,2054,1423,554
8.054357663999326,2096,1440,547
8.057049335999181,2064,1458,558
8.059743716999947,2006,1455,546
8.062438554999972,1968,1390,507
8.065131186000144,1946,1386,511
8.06788798299931,1931,1345,492
8.070625779999318,1975,1380,528
8.073358285999348,2099,1439,554
8.07604770800026,2083,1448,553
8.078736714000115,2030,1478,572
8.081428677000076,1981,1404,511
8.084116890999212,1951,1387,511
8.08680735499911,1934,1361,503
8.089499194000382,1928,1328,493
8.092187448999539,2083,1430,558
8.09487866299969,2111,1447,550
8.097571043999778,2064,1469,561
8.100260174000141,2003,1439,537
8.10449905799942,1968,1392,511
8.107195188000333,1935,1360,505
8.109887526999955,1934,1346,505
8.112576866000381,2097,1433,559
8.115268579998883,2108,1445,546
8.117960126999606,2057,1473,563
8.120650257000307,2000,1427,528
8.123339595998914,1961,1391,508
8.126029017999826,1938,1378,511
8.128717648998645,1934,1329,481
8.131404988000213,2052,1419,553
8.134092909998799,2119,1451,555
8.136782789999415,2082,1462,559
8.139473836999969,2022,1481,565
8.142164259999845,1976,1395,505
8.144853681998939,1942,1392,511
8.147542103999513,1931,1355,496
8.150232443000277,1947,1365,511
8.152918280999074,2113,1441,560
8.155607454000346,2106,1453,549
8.158295000999715,2053,1481,573
8.16098129799866,1993,1423,528
8.163670261999869,1959,1392,510
8.166358641999977,1936,1373,509
8.16905014799886,1933,1327,481
8.171739069999603,2065,1427,559
8.174429074999352,2113,1449,554
8.177112163999482,2073,1467,563
8.179801169999337,2013,1461,555
8.182491257999573,1970,1394,510
8.185179180998603,1945,1389,511
8.187869477998902,1931,1347,491
8.190559066999413,1979,1380,529
8.19324582199988,2111,1442,558
8.195968369000184,2096,1454,554
8.198657375000039,2038,1486,575
8.201369129999875,1988,1409,511
8.204059510999286,1955,1391,511
8.206750474999353,1936,1365,502
8.209439812999335,1933,1328,492
8.212126819000332,2096,1435,560
8.214813365999362,2116,1450,550
8.217501287999767,2065,1472,562
8.220188751998649,2010,1447,539
8.22287867399973,1969,1393,509
8.225567220999437,1943,1386,511
8.228256309999779,1933,1343,491
8.230943898999612,2020,1403,538
8.233635028998833,2118,1454,557
8.236324243000126,2092,1461,557
8.239012456999262,2032,1490,576
8.241699961999984,1983,1402,505
8.244387300999733,1951,1391,511
8.24707593200037,1936,1360,499
8.249763728999824,1934,1338,498
8.252464858998792,2096,1434,560
8.255165906999537,2110,1447,549
8.257857661999878,2057,1473,569
8.260547375999522,2001,1431,533
8.263268005999635,1967,1392,511
8.265964094998708,1938,1380,511
8.268653058999917,1931,1332,482
8.271341022998968,2046,1418,552
8.27403277799931,2115,1450,551
8.27671782499965,2080,1463,557
8.279407955998977,2022,1483,564
8.282100252999953,1979,1395,507
8.284788341999956,1950,1390,522
8.287479180999071,1935,1355,496
8.290170185999159,1946,1365,511
8.292856399999437,2101,1438,558
8.295545279999715,2100,1445,549
8.298237618999337,2047,1477,572
8.300926707999679,1981,1409,511
8.303616713999872,1959,1390,511
8.306306843998755,1937,1374,508
8.308996599998864,1931,1326,478
8.31168564699874,2065,1426,551
8.314372068998637,2114,1449,556
8.317059323999274,2071,1467,563
8.319749037998918,2016,1462,554
8.322437459999492,1968,1393,510
8.32512396600032,1943,1390,511
8.327812554998673,1935,1346,492
8.33052785200016,1975,1381,528
8.333218816000226,2110,1445,558
8.335937195999577,2096,1453,554
8.338628993000384,2037,1485,576
8.341344623999248,1989,1409,511
8.344033962999674,1956,1392,511
8.34672321799917,1936,1365,503
8.349412764999215,1928,1328,491
8.352101603999472,2085,1434,561
8.354789817998608,2112,1447,549
8.357477239998843,2063,1471,565
8.360166954000306,2005,1445,542
8.362855792998744,1962,1392,511
8.36554646500008,1945,1385,525
8.368234094999934,1933,1342,487
8.370921767000254,1998,1391,528
8.373613480998756,2107,1447,557
8.376298027998928,2083,1456,558
8.379126241999984,2025,1488,579
8.381818080999437,1977,1393,507
8.384502961998805,1951,1389,522
8.387192883999887,1936,1359,499
8.389881888999298,1934,1350,507
8.392570519999936,2101,1435,559
8.395260191999114,2111,1447,550
8.397948572999667,2061,1474,569
8.400635660998887,2000,1427,529
8.403333791999103,1963,1391,510
8.406024130999867,1942,1379,511
8.40871192799932,1934,1329,479
8.411400474999027,2062,1423,555
8.414090229998692,2126,1456,557
8.416812735998974,2093,1467,561
8.419504616000268,2023,1481,566
8.422195413999361,1973,1397,502
8.424885544000063,1949,1392,524
8.427576632999262,1936,1354,497
8.43026530499992,1956,1371,526
8.432954726999014,2115,1446,558
8.435644940998827,2107,1456,551
8.43833244599955,2053,1485,574
8.441018952000377,1997,1423,528
8.443706415999259,1958,1392,511
8.44639442100015,1938,1375,510
8.44908205199863,1933,1326,482
8.451770931998908,2080,1428,560
8.454458021000391,2123,1456,555
8.457148485000289,2080,1472,563
8.459838406999552,2007,1461,553
8.462529078999069,1969,1396,511
8.465216959999452,1943,1392,523
8.467907381998884,1935,1347,493
8.470596511999247,1995,1392,534
8.473317267998937,2128,1455,560
8.476006106999193,2109,1461,560
8.478698445000191,2047,1491,576
8.481390117998671,1994,1414,511
8.48407899799895,1959,1395,523
8.486769879000349,1939,1370,506
8.489459884000098,1933,1336,495
8.49214838899934,2057,1429,560
8.494837270000062,2064,1431,545
8.497528649999367,2031,1456,562
8.500215822999962,1989,1427,537
8.502906411000367,1953,1379,507
8.505595917000392,1936,1375,511
8.50828213099885,1922,1328,484
8.510986969999067,2015,1394,536
8.513687933000256,2112,1444,550
8.516376521998609,2089,1456,555
8.519062444000156,2027,1488,576
8.521750574998805,1981,1392,510
8.524437579999358,1953,1390,511
8.527127543999086,1936,1360,496
8.529819965999195,1931,1347,506
8.532507637999515,2117,1443,559
8.535196393999286,2129,1456,554
8.537885357998675,2074,1488,574
8.540576696999779,2009,1439,533
8.543267451999782,1968,1397,511
8.545955998999489,1942,1387,511
8.548644004999005,1933,1335,483
8.551332510000066,2039,1421,553
8.55402364099973,2111,1450,551
8.55671152099967,2074,1463,558
8.5594013179998,2017,1478,566
8.562089906999972,1970,1387,508
8.564777079000123,1945,1386,511
8.567465209998772,1933,1349,496
8.570155882000108,1950,1363,511
8.572845429000154,2095,1438,557
8.575534892999713,2093,1445,546
8.578224732000308,2039,1474,567
8.580909528998745,1986,1413,525
8.583597617998748,1956,1389,511
8.586287830999936,1939,1372,508
8.588976794999326,1930,1326,479
8.591667258999223,2063,1424,559
8.594357639000009,2106,1443,553
8.597044936999737,2067,1463,560
8.599733233999359,2007,1459,555
8.602421448000314,1969,1392,508
8.60511020299964,1946,1390,511
8.607803333999982,1936,1347,493
8.610493922000387,1979,1383,532
8.613181761000305,2105,1441,557
8.615870016999907,2086,1451,550
8.618558563999613,2032,1478,574
8.62125006899987,1984,1409,511
8.623974157999328,1958,1389,511
8.626664747000177,1937,1365,501
8.629380418999062,1932,1328,487
8.632070841000314,2078,1430,558
8.634760805000042,2103,1441,548
8.637452476999897,2061,1466,560
8.64014348299861,2004,1441,537
8.642833697000242,1961,1392,510
8.645521409998764,1939,1383,511
8.648208208000142,1935,1338,485
8.650897462999637,2010,1396,539
8.653585885000211,2101,1443,556
8.656273098999009,2079,1456,558
8.65896218799935,2021,1486,576
8.66165006799929,1979,1397,510
8.664347531999738,1953,1391,511
8.66705132899915,1936,1360,499
8.669793043000027,1933,1344,499
8.6725310490001,2091,1435,557
8.675256638000064,2091,1440,545
8.67795176799882,2043,1470,564
8.680638814999838,1990,1423,525
8.683328320999863,1962,1387,511
8.686017784999422,1939,1374,509
8.688705497999763,1933,1328,478
8.69139625400021,2041,1415,553
8.69408571799977,2106,1443,554
8.696773847999793,2069,1456,559
8.699462478998612,2010,1469,560
8.702153651000117,1971,1392,501
8.70484328099883,1940,1389,511
8.707531952999489,1936,1350,496
8.710219126000084,1953,1367,527
8.712905672999113,2095,1435,559
8.715594927998609,2086,1445,551
8.718282558998908,2032,1473,569
8.720969396999863,1985,1413,527
8.723659403000056,1959,1389,511
8.726347407999128,1939,1370,504
8.729035622000083,1933,1325,477
8.731724543999007,2067,1429,559
8.734415216998968,2109,1449,555
8.737103596999077,2067,1467,561
8.739792393998869,2007,1456,550
8.74248169099883,1968,1393,509
8.745167862998642,1945,1390,511
8.74785549399894,1935,1346,493
8.750542165998922,1986,1389,533
8.753229629999623,2112,1445,556
8.755950676999419,2080,1442,545
8.758642765998957,2036,1486,577
8.76135652099947,1986,1408,511
8.764048277000256,1957,1392,511
8.766737824000302,1936,1365,503
8.769426204999036,1929,1331,494
8.772155835000376,2083,1434,559
8.774843590999808,2102,1447,547
8.77753663799922,2059,1471,560
8.780220642998756,2000,1438,532
8.782908106999457,1968,1392,509
8.785597987998699,1942,1383,511
8.788285325999823,1933,1337,485
8.790982123999129,2030,1407,542
8.79367146199911,2119,1454,551
8.796361008999156,2094,1463,558
8.799051514999519,2032,1492,576
8.80174031199931,1982,1400,505
8.804426942999271,1952,1386,511
8.807114240000374,1936,1360,497
8.809801620000144,1930,1350,502
8.812488292000126,2110,1439,557
8.815177548000065,2117,1451,549
8.817863886999476,2064,1477,575
8.820549558999119,2003,1432,530
8.823238605998995,1966,1392,508
8.825928070000373,1945,1381,511
8.828614658999868,1933,1331,483
8.831302705999406,2047,1419,549
8.833990211000128,2115,1451,551
8.836677007999242,2082,1463,555
8.839366804999372,2019,1478,566
8.84205460299927,1974,1395,506
8.844740732998616,1952,1391,511
8.84743236400027,1936,1355,496
8.850120993998644,1953,1370,526
8.85280841599888,2112,1440,559
8.85550033799882,2106,1454,552
8.8581875939999,2045,1482,572
8.860877765999248,1998,1421,528
8.863569563000055,1962,1392,510
8.866259151998747,1939,1375,510
8.868946698999935,1934,1326,480
8.871636329999092,2067,1427,560
8.87432816799992,2117,1451,554
8.87701875699895,2074,1469,565
8.87970905399925,2011,1457,546
8.882398185000056,1970,1394,508
8.885088773999087,1948,1392,511
8.887776403998942,1934,1344,490
8.890467367999008,1984,1385,529
8.893155331999878,2110,1446,555
8.895845795999776,2093,1456,549
8.898533259000033,2035,1485,575
8.901219639999908,1987,1413,511
8.903934811998624,1955,1391,511
8.906625734000045,1936,1366,507
8.909342031000051,1934,1328,490
8.91203257899906,2091,1438,560
8.914722833998894,2117,1453,548
8.917413756000315,2068,1474,565
8.92010067800038,2007,1446,543
8.92278934999922,1968,1394,510
8.925479605999499,1942,1386,525
8.92816861099891,1933,1342,488
8.930856658998891,2016,1404,544
8.933547205999275,2116,1451,559
8.936233627999172,2091,1458,559
8.93892409199907,2032,1491,582
8.941614179999306,1983,1402,509
8.944302310999774,1954,1392,511
8.946991691000221,1936,1362,503
8.94968061399959,1931,1344,499
8.952369493999868,2102,1438,560
8.955060665999554,2112,1450,551
8.95775246300036,2062,1471,567
8.960439926999243,2000,1433,531
8.963127848999648,1965,1392,511
8.965817479998805,1941,1382,511
8.968506694000098,1933,1332,483
8.971194448999086,2044,1415,551
8.973882079999385,2127,1454,555
8.976573668000128,2091,1467,560
8.979266798998651,2028,1487,567
8.981956012999945,1975,1392,500
8.984646226999757,1950,1393,522
8.987333523999041,1935,1359,496
8.990025195998896,1945,1365,522
8.992713034998815,2106,1441,560
8.995403581999199,2102,1449,553
8.998090503999265,2046,1476,573
9.000777258999733,1991,1421,528
9.003465806999884,1959,1392,511
9.006154186999993,1938,1374,509
9.008840151000186,1925,1328,482
9.011528531000295,2060,1424,555
9.014269579000029,2105,1445,548
9.01698391699938,2071,1465,560
9.019675047999044,2007,1457,551
9.02236276199983,1970,1392,507
9.025048350998986,1946,1389,511
9.027738647999286,1936,1345,494
9.030428444999416,1980,1383,529
9.033117283999673,2102,1442,554
9.035806288999083,2091,1451,553
9.038495460999911,2034,1481,576
9.041183924999132,1984,1409,511
9.043872389000171,1953,1389,511
9.046560435999709,1938,1365,506
9.049245649999648,1932,1328,492
9.051964614000099,2094,1435,563
9.05465795300006,2122,1453,553
9.05737066599977,2075,1475,566
9.060061004998715,2013,1453,546
9.062751510999078,1969,1392,511
9.065439473999504,1940,1390,511
9.068125937999866,1936,1341,491
9.070815527000377,2019,1402,538
9.07350249099909,2112,1449,558
9.076234913000008,2086,1457,555
9.078968834999614,2031,1489,578
9.081660423998983,1981,1396,502
9.08434897099869,1951,1382,511
9.087041643999328,1939,1360,500
9.089732274000198,1931,1346,509
9.092422028999863,2103,1441,560
9.095113909999782,2112,1449,553
9.097803206999743,2064,1477,571
9.100490838000042,2001,1431,533
9.10317971800032,1967,1392,511
9.105869556999096,1939,1381,511
9.108557728999585,1931,1332,485
9.111246275999292,2057,1423,556
9.113935157000014,2119,1453,558
9.116623537000123,2085,1466,560
9.119312958999217,2026,1482,567
9.122003297999981,1974,1397,502
9.124690261998694,1947,1392,511
9.12737901699984,1936,1349,497
9.130069064998679,1954,1367,511
9.132756069999232,2114,1441,559
9.135446116999447,2112,1454,554
9.13813370599928,2054,1484,574
9.140822628000024,1997,1424,528
9.143511424999815,1962,1392,511
9.146200264000072,1940,1375,511
9.148889977999715,1935,1328,482
9.151579941999444,2058,1426,558
9.154269238999404,2103,1445,550
9.156957244000296,2065,1463,560
9.159645915999135,2014,1458,557
9.162333546999434,1973,1393,511
9.165021676999459,1950,1392,523
9.167707349999546,1936,1349,491
9.170397146999676,1968,1379,528
9.173084568999911,2043,1424,549
9.175775407999026,2031,1424,545
9.178464996999537,1991,1456,567
9.18115541899897,1962,1387,506
9.18384342399986,1936,1367,506
9.186532054998679,1930,1345,493
9.189223976998619,1927,1318,482
9.19193464899945,2114,1436,560
9.194625403999453,2145,1457,554
9.197340034999797,2094,1483,572
9.20002966500033,2027,1456,549
9.202719670998704,1973,1403,511
9.205409050999151,1950,1393,522
9.20809647399983,1936,1346,495
9.210785228999157,2033,1409,545
9.213474817999668,2142,1459,559
9.21616473999893,2110,1472,560
9.218852953999885,2044,1501,583
9.221541500999592,1988,1409,511
9.2242300479993,1954,1397,525
9.226917178999429,1923,1355,496
9.229604641999686,1933,1344,506
9.232292980999773,2096,1438,562
9.234982736999882,2107,1447,554
9.237671533999674,2057,1473,565
9.240357788999972,2000,1431,534
9.243054002999997,1964,1392,511
9.2457428839989,1943,1380,511
9.24842893099958,1933,1334,483
9.251115936000133,2034,1412,550
9.253804107998803,2110,1445,555
9.256490988998848,2075,1457,560
9.259178660999169,2019,1481,569
9.261866415999975,1973,1395,503
9.264553588998751,1950,1391,511
9.26724117699996,1936,1355,496
9.269929432999561,1942,1361,511
9.272615771998971,2093,1436,559
9.275303943999461,2093,1441,550
9.277992866000204,2036,1475,571
9.280685204999827,1995,1418,511
9.28337675199873,1959,1388,511
9.286065506999876,1937,1373,511
9.288753262999307,1931,1318,474
9.291440977000093,2057,1424,553
9.294129898999017,2112,1442,551
9.296816987998682,2070,1465,560
9.299506326999108,2013,1471,559
9.302195289999872,1971,1393,509
9.304881128999114,1947,1391,524
9.30756834299973,1934,1348,495
9.31025734799914,1968,1377,527
9.312945228999524,2097,1440,557
9.315634692999083,2090,1449,549
9.318323072999192,2032,1477,573
9.32100962000004,1984,1411,511
9.323703459000171,1959,1387,509
9.326404339999499,1936,1366,508
9.329099636999672,1933,1321,485
9.331791683998745,2074,1426,559
9.334485522998875,2105,1445,547
9.337175486998603,2064,1463,560
9.339865949999876,2002,1447,541
9.342555788998652,1966,1392,509
9.34524362800039,1945,1387,511
9.347964008999043,1934,1344,487
9.350654388999828,2000,1394,538
9.353364352999051,2111,1446,556
9.356053857998631,2085,1454,554
9.358743696999227,2027,1484,576
9.361432993999188,1983,1399,511
9.364119541998662,1951,1391,511
9.366809297000145,1938,1360,501
9.369497177000085,1931,1339,496
9.372190015999877,2092,1436,557
9.374884521999775,2102,1443,549
9.37757486099872,2058,1470,566
9.380266823998682,2001,1433,536
9.382955704999404,1967,1391,511
9.385644084999512,1941,1379,511
9.388333257998966,1936,1333,483
9.391022054998757,2031,1405,537
9.393712184999458,2107,1447,554
9.396400731999165,2076,1461,559
9.399089612999887,2021,1485,574
9.401776659999086,1977,1393,508
9.404464706998624,1951,1391,511
9.407154128999537,1936,1359,499
9.409841509999751,1936,1359,511
9.412527598999077,2096,1435,559
9.41521622899927,2096,1442,550
9.417905567999696,2045,1472,571
9.420590781999636,1991,1421,528
9.423278954000125,1963,1387,511
9.425967043000128,1945,1376,510
9.428655714998968,1934,1329,478
9.431344470000113,2053,1424,554
9.434036683998784,2109,1450,554
9.436725772999125,2071,1463,560
9.439416777999213,2017,1472,560
9.442106491998857,1973,1394,505
9.44479328899979,1943,1390,511
9.447482419998778,1936,1351,496
9.450169841999013,1968,1375,527
9.452856138999778,2113,1445,559
9.455544061000182,2102,1454,554
9.458232650000355,2041,1483,575
9.460920071998771,1989,1419,527
9.463611244000276,1957,1392,511
9.466300374999264,1937,1374,508
9.468988504999288,1930,1325,480
9.471679635998953,2080,1435,554
9.474369724999633,2114,1453,549
9.477055896999445,2073,1470,562
9.479744693999237,2012,1453,551
9.482431282998732,1968,1395,511
9.485122496000258,1945,1389,511
9.487811709999733,1936,1344,493
9.490500132000307,1997,1392,538
9.493190262999633,2112,1442,547
9.495878142999572,2096,1456,551
9.498567941000147,2033,1487,576
9.501258737998796,1987,1407,511
9.503978617998655,1954,1392,511
9.506669039999906,1938,1367,503
9.509359087998746,1934,1340,496
9.512046926000039,2095,1440,560
9.514735765000296,2116,1452,550
9.517425729000024,2067,1475,570
9.5201115259988,2009,1440,541
9.522799406999184,1968,1392,510
9.525488411998595,1939,1385,511
9.528176668000015,1936,1341,487
9.530868380999891,2027,1407,545
9.533559678999154,2125,1454,556
9.536249016999136,2096,1466,559
9.538939647998632,2031,1491,577
9.541628861999925,1984,1402,508
9.544316034000076,1949,1393,511
9.547004623000248,1936,1363,499
9.549693377999574,1935,1351,505
9.552380049999556,2106,1439,560
9.555068846999347,2112,1451,552
9.557756852998864,2060,1475,569
9.560443607999332,2000,1427,529
9.563911281999026,1964,1392,511
9.566610870999284,1937,1383,511
9.569330876000095,1927,1330,494
9.572019631999865,2089,1433,560
9.574709428999995,2107,1445,549
9.577401017999364,2063,1469,565
9.580089106999367,2004,1441,541
9.582778694999433,1966,1392,511
9.58546911799931,1941,1383,511
9.588152790000095,1934,1341,487
9.590843461999611,2031,1407,539
9.593532216998938,2123,1455,554
9.596223765000104,2096,1457,549
9.598916311999346,2034,1494,578
9.601608400998884,1983,1401,511
9.604295155999353,1952,1392,511
9.606984910999017,1936,1361,501
9.609693791999234,1936,1354,502
9.612382671999512,2109,1440,560
9.615071219999663,2112,1451,546
9.617760557999645,2059,1475,569
9.620447022000008,2000,1430,529
9.623136819000138,1965,1392,510
9.625825866998639,1936,1381,511
9.628515746999255,1933,1331,482
9.63120658600019,2058,1423,549
9.633895757999198,2121,1453,555
9.636583554998651,2086,1468,560
9.639273476999733,2026,1478,565
9.641962607998721,1977,1397,510
9.644648530000268,1949,1392,523
9.647336743999404,1936,1356,496
9.650025082999491,1955,1371,525
9.652710921000107,2109,1443,558
9.655399760000364,2105,1454,554
9.658088640999267,2046,1482,576
9.660777312999926,1994,1422,527
9.663465984998766,1957,1392,511
9.66615361499862,1939,1372,509
9.668842412998856,1930,1327,480
9.671532000998923,2079,1428,559
9.674220965000131,2122,1454,555
9.676906761998907,2069,1461,554
9.679595933999735,2015,1466,556
9.682283565000034,1972,1398,511
9.684972986999128,1946,1392,511
9.6876615759993,1937,1350,495
9.690350998000213,1983,1389,534
9.693041836999328,2112,1446,560
9.695729758999732,2094,1453,554
9.6984201389987,2033,1477,572
9.70110676999866,1986,1409,511
9.70379606699862,1954,1391,511
9.706483780999406,1939,1366,502
9.709171327998774,1930,1330,490
9.711859458999243,2089,1439,560
9.714549713999077,2114,1451,551
9.717236927999693,2066,1472,563
9.719957682998938,2007,1447,548
9.722647938999216,1969,1394,511
9.725363194000238,1942,1389,511
9.728053241999078,1935,1342,489
9.730743954998616,2026,1400,541
9.733433002998936,2118,1454,559
9.736118799999531,2096,1462,559
9.738807722000274,2025,1490,576
9.741498101999241,1984,1403,507
9.744185565999942,1955,1392,511
9.74687582200022,1934,1362,505
9.74956503499925,1931,1344,506
9.752252790998682,2105,1437,560
9.754939962998833,2112,1450,553
9.757629968000401,2064,1475,571
9.760320641000362,2001,1435,531
9.76300918800007,1965,1392,509
9.76569848500003,1939,1381,511
9.768386406998616,1936,1335,484
9.771077203999084,2054,1419,554
9.77376654299951,2123,1453,557
9.776453964999746,2094,1469,560
9.779142596000383,2029,1485,566
9.781829183999434,1971,1398,508
9.784519482000178,1953,1392,522
9.787209694999547,1936,1357,497
9.78989940899919,1947,1365,522
9.792592247998982,2112,1442,560
9.795281128999704,2109,1455,550
9.797972716998629,2059,1484,575
9.800660847999097,1998,1415,526
9.80335106199891,1965,1392,511
9.806041025000013,1938,1376,511
9.808729738999318,1933,1328,479
9.811418369999956,2071,1427,559
9.814105416999155,2121,1453,551
9.816793422000046,2077,1469,563
9.81979559499996,2017,1471,559
9.822540350998679,1979,1399,511
9.825347022999267,1949,1390,523
9.828090611999869,1937,1344,489
9.830826325998714,2000,1393,535
9.833558372998596,2071,1430,550
9.836286753999957,2053,1441,551
9.839017383999817,2006,1472,571
9.8417465980001,1967,1386,496
9.844473686998754,1941,1377,510
9.847202818000369,1927,1346,493
9.849933072999193,1936,1354,509
9.852667786999518,2112,1431,556
9.855398125999272,2111,1445,547
9.85812679799892,2055,1474,566
9.860852261999753,1993,1418,526
9.86358039299921,1959,1390,511
9.866308189999472,1936,1370,507
9.869033445998866,1934,1326,482
9.871767200998875,2110,1440,560
9.874501039999814,2142,1459,554
9.877229461999377,2093,1482,565
9.879994592998628,2023,1456,550
9.88274143200033,1977,1403,511
9.885467478999999,1950,1392,511
9.888193150998632,1934,1343,489
9.890919281999231,2032,1413,544
9.893645453999852,2123,1456,557
9.89636933499969,2091,1467,560
9.899094047999824,2027,1487,571
9.901820887000213,1980,1398,506
9.904546435000157,1946,1391,511
9.907273732000249,1936,1355,496
9.910001153999474,1950,1367,511
9.912726118000137,2109,1440,549
9.915453372999764,2097,1451,545
9.9181841289992,2039,1478,570
9.920915384998807,1987,1418,511
9.923677806998967,1954,1389,510
9.926438520999,1939,1367,505
9.929181276000236,1930,1328,492
9.93191990699961,2089,1437,561
9.934659745998943,2112,1447,551
9.937398127000051,2064,1472,562
9.940131756999108,2005,1439,539
9.942870720999053,1965,1392,509
9.945608435000395,1946,1381,511
9.948345064998648,1933,1333,484
9.951085904000138,2037,1415,548
9.953823242998624,2113,1445,548
9.956552415998885,2079,1459,558
9.9592910880001,2018,1475,561
9.962030259999665,1975,1394,508
9.964763181998933,1949,1391,511
9.967497020999872,1934,1351,496
9.970233901998654,1970,1379,528
9.972965615999783,2090,1427,544
9.975702162999369,2086,1451,550
9.978449042999273,2031,1480,576
9.981187424000382,1985,1403,511
9.983939763000308,1955,1389,511
9.986673851999512,1936,1360,501
9.989407356999436,1935,1338,496
9.992141237999022,2091,1435,560
9.99487295200015,2098,1443,549
9.997605123999165,2055,1472,567
10.000337670999215,2000,1429,529
10.003071009999985,1962,1389,503
10.005807432999063,1939,1365,502
10.008539062999262,1935,1329,482
10.011274859998593,2058,1424,554
10.014014532998772,2109,1445,551
10.01680274699902,2067,1460,558
10.020040961999257,2011,1465,558
10.02274425900032,1969,1392,511
10.02544072299861,1939,1382,511
10.028132269999332,1936,1334,487
10.03082810900014,2016,1403,546
