time,y1,y2,y3
0.0061135119995014975,1943,938,450
0.008866434000083245,1929,1009,384
0.011603064000155427,1981,1139,431
0.014336360998640885,2139,1281,475
0.017068074999770033,2122,1346,493
0.019801246999122668,2057,1414,539
0.02253633599866589,1990,1357,478
0.025270258000091417,1951,1347,485
0.028546014000312425,1931,1325,478
0.031293019999793614,1920,1307,477
0.033986774998993496,2123,1414,539
0.036680904999229824,2117,1438,539
0.039372661000015796,2061,1477,567
0.042065540999828954,1997,1417,511
0.04475654599991685,1954,1382,500
0.04744667699924321,1934,1359,496
0.05013976499867567,1921,1307,464
0.05283502000020235,2066,1418,542
0.055525441999634495,2112,1441,542
0.058218947999193915,2069,1469,557
0.060912744998859125,2006,1457,546
0.06360279199907382,1966,1391,502
0.06629733899899293,1937,1377,501
0.06899484399946232,1925,1329,469
0.07168884899874683,1984,1376,511
0.07438781299970287,2117,1437,543
0.07708094299960067,2097,1456,547
0.07976994799901149,2034,1487,573
0.08246457899986126,1982,1407,506
0.08515750100013975,1946,1383,500
0.087849630999699,1927,1355,489
0.09054259499862383,1920,1321,478
0.09323668300021382,2110,1428,549
0.0959380219992454,2141,1455,543
0.09863936100009596,2086,1487,560
0.10133419900012086,2014,1455,541
0.10402762099874963,1964,1396,505
0.10672187599993777,1935,1382,505
0.10941379799987772,1922,1328,468
0.11210305399981735,2032,1397,530
0.11479735099965183,2144,1455,551
0.1174937729992962,2112,1472,553
0.12018381999951089,2039,1504,576
0.12287815799936652,1983,1410,507
0.1255695799991372,1947,1390,507
0.1282603769996058,1929,1350,489
0.1309524659991439,1921,1338,494
0.1336440129998664,2119,1435,551
0.13633685099921422,2133,1456,546
0.13902810699983092,2075,1490,571
0.14171856999928423,2004,1440,530
0.14440678400023899,1965,1394,507
0.14709953899910033,1935,1373,503
0.1497942529986176,1924,1320,468
0.15248559199972078,2033,1408,534
0.1551790550001897,2096,1439,542
0.15787097700012964,2060,1456,555
0.1605601069986733,1999,1466,558
0.16329411299921048,1953,1385,496
0.16599032599879138,1926,1373,503
0.16868391499883728,1914,1328,477
0.17137487899890402,1938,1348,501
0.17406896699867502,2121,1429,545
0.1767622229999688,2113,1451,546
0.17945231100020465,2057,1487,569
0.18214848299976438,1991,1423,523
0.1848399470000004,1951,1387,506
0.18752940999911516,1931,1360,495
0.1902226239999436,1920,1310,468
0.19291412900020077,2089,1424,550
0.19560655100031,2141,1454,547
0.19829797300008067,2091,1478,560
0.2009944789988367,2019,1470,550
0.20368552599938994,1968,1397,502
0.20637586399971042,1936,1383,503
0.2091050359995279,1920,1332,473
0.21180479199938418,1989,1380,511
0.21451400499972806,2124,1443,545
0.21720867699878,2104,1459,551
0.2198998069998197,2037,1491,576
0.2225898540000344,1981,1407,505
0.2252798179997626,1941,1386,503
0.22797032299968123,1923,1353,491
0.23067557899958047,1915,1325,481
0.2333676669986744,2107,1425,550
0.23605808899992553,2128,1451,543
0.23874884499855398,2074,1482,560
0.24144247499862104,2005,1447,535
0.24413327199908963,1959,1392,506
0.24682694399962202,1931,1375,506
0.2495201570000063,1918,1322,467
0.25221178799984045,2035,1398,528
0.25490420999994967,2145,1454,548
0.25760329799959436,2111,1472,554
0.2602980949995981,2035,1499,571
0.26299289199960185,1975,1407,505
0.2656882310002402,1938,1390,507
0.2683777359998203,1920,1346,483
0.27107094999882975,1920,1339,494
0.2737670379992778,2110,1430,546
0.27645787700021174,2114,1450,546
0.27915100700010953,2060,1484,565
0.28184622099979606,1994,1426,527
0.2845393099996727,1952,1390,501
0.28726898199965945,1926,1366,497
0.28996532000019215,1917,1311,464
0.2926824089990987,2066,1415,540
0.295375456000329,2143,1451,543
0.29807087799963483,2096,1477,558
0.3007680499995331,2023,1481,558
0.30345901399959985,1968,1399,503
0.30615281099926506,1936,1387,503
0.3088454409989936,1919,1339,470
0.3115351129999908,1959,1365,506
0.3142309100003331,2146,1449,555
0.31692370699965977,2133,1467,550
0.3196148789993458,2066,1502,576
0.3223078840001108,1993,1428,511
0.3250033889999031,1948,1392,507
0.32769606100009696,1921,1363,495
0.3303856499987887,1914,1313,471
0.3330769469994266,2078,1424,546
0.33576674399955664,2117,1446,543
0.33845795699926384,2069,1472,560
0.34115262900013477,2003,1455,542
0.34384342599878437,1957,1390,501
0.3465384319988516,1929,1375,506
0.3492310199999338,1917,1327,475
0.3519204839994927,2007,1382,524
0.3546270309998363,2155,1452,554
0.3573252859987406,2127,1472,551
0.3600196669995057,2053,1505,580
0.36271483800010174,1984,1418,507
0.36540971899921715,1943,1392,510
0.36810051599968574,1920,1355,492
0.3707940629992663,1910,1327,484
0.37348606799969275,2097,1425,545
0.3761761569985538,2113,1446,547
0.37887053699887474,2063,1478,569
0.38156212600006256,1994,1434,528
0.38425308899968513,1951,1386,501
0.3869470949994138,1925,1367,499
0.3896439330001158,1905,1315,465
0.39233810499899846,2017,1392,528
0.39503315199908684,2112,1437,542
0.39772599099887884,2067,1449,543
0.4004170789994532,2016,1479,562
0.40311087599911843,1966,1392,496
0.4058105069998419,1934,1379,499
0.4085162199990009,1918,1339,478
0.41127589200004877,1919,1337,494
0.41398389799906,2128,1430,547
0.41667752799912705,2128,1455,545
0.419399116999557,2064,1487,574
0.42210207999960403,1994,1426,527
0.42479662699952314,1946,1387,503
0.42749163299959037,1921,1362,495
0.430184887998621,1910,1309,464
0.43287597699963953,2080,1421,549
0.4355681899996853,2142,1450,546
0.43826056999932916,2094,1478,561
0.4409527009993326,2018,1472,556
0.44364812299863843,1958,1395,502
0.4463461279992771,1933,1383,506
0.4490399249989423,1913,1331,477
0.4517315140001301,1974,1373,511
0.4544258939986321,2145,1449,551
0.4571211909988051,2128,1467,555
0.45981269599906227,2058,1501,577
0.4625057020002714,1984,1422,511
0.46520087299904844,1941,1392,507
0.4678937539993058,1920,1358,491
0.470587550998971,1909,1313,474
0.4732897639987641,2095,1424,546
0.47598372799984645,2128,1451,542
0.4786808579992794,2075,1478,561
0.48137502999998105,2004,1453,543
0.4840664109997306,1956,1392,499
0.48675941599867656,1926,1374,505
0.4894561299988709,1911,1323,470
0.4921491770001012,2029,1392,528
0.49484430699885706,2159,1454,554
0.49753797899938945,2126,1475,558
0.5002300260002812,2047,1505,580
0.5029249479994178,1980,1411,510
0.5056183699998655,1936,1390,506
0.5083132500003558,1917,1349,491
0.5110114219987736,1909,1329,484
0.5137066770003003,2127,1435,551
0.5163964329985902,2143,1456,550
0.519090480000159,2078,1488,572
0.5217841929988936,2001,1442,532
0.5244714069995098,1953,1392,503
0.5271674119994714,1921,1372,501
0.5298619169989252,1911,1317,467
0.5325546730000497,2057,1405,538
0.5352793450001627,2145,1454,548
0.537971182999172,2101,1475,558
0.5406624389997887,2027,1488,563
0.5433547769989673,1968,1398,505
0.5460505329992884,1933,1385,506
0.5487496209989331,1915,1341,482
0.5514419179999095,1934,1349,501
0.5541355899986229,2123,1434,546
0.5568314699994517,2118,1454,546
0.5595238919995609,2055,1486,567
0.5622195229989302,1984,1424,526
0.56491356999868,1945,1387,502
0.5676057000000583,1920,1360,494
0.5703012889989623,1909,1303,462
0.5729981690001296,2089,1422,546
0.575694924000345,2148,1456,545
0.5783909299989318,2097,1481,560
0.5810852269987663,2021,1471,550
0.5837799399996584,1966,1398,503
0.5864744869995775,1929,1382,506
0.5891689090003638,1913,1329,475
0.5918615809987386,1986,1377,511
0.5945580449988483,2147,1444,546
0.597264007999911,2128,1468,554
0.5999583049997455,2057,1515,589
0.6026524769986281,1983,1427,523
0.605469190999429,1941,1397,511
0.608234530000118,1920,1362,505
0.610934868998811,1910,1328,493
0.6136282489987934,2090,1425,557
0.616319045999262,2106,1445,551
0.6190093429995613,2055,1473,573
0.6217017649996706,1989,1437,536
0.62438993700016,1952,1386,509
0.6270828999986406,1925,1366,510
0.6297771970002941,1916,1315,478
0.632469868998669,2019,1392,539
0.6351678329992865,2108,1437,553
0.6378615049998189,2073,1456,558
0.6405540099985956,2013,1477,569
0.643267098999786,1965,1391,502
0.6459572709991335,1933,1376,507
0.6486495680001099,1911,1338,493
0.6513372809986322,1923,1339,501
0.6540277450003487,2087,1422,553
0.6567174589999922,2086,1436,547
0.659404463998726,2032,1470,575
0.66209471899856,1977,1418,529
0.6647825999989436,1942,1379,508
0.667472312999962,1926,1360,501
0.6701625269997749,1917,1307,469
0.6728514489986992,2058,1408,545
0.6755389959998865,2113,1439,545
0.6782286679990648,2075,1465,560
0.6809199229992373,2011,1469,560
0.6836073449994728,1961,1392,505
0.686295309000343,1933,1373,506
0.6889849389990559,1918,1335,486
0.6916723609992914,1947,1357,511
0.6943612830000347,2069,1420,544
0.6970492459986417,2064,1431,546
0.6997695849986485,2013,1468,571
0.7024818399986543,1968,1408,525
0.7051808039996104,1939,1375,507
0.7078732259997196,1921,1350,499
0.7105735650002316,1917,1306,480
0.7132744449991151,2046,1409,551
0.715966824998759,2081,1426,545
0.7186598719999893,2038,1456,560
0.7213796279993403,1986,1439,545
0.7240768829997251,1951,1379,503
0.7267743880001944,1927,1369,509
0.7294696429999021,1919,1321,477
0.7321696899998642,2002,1381,528
0.7348616959989158,2125,1438,550
0.7375539509994269,2097,1455,558
0.7402466650000861,2032,1492,577
0.7429403369987995,1977,1405,511
0.7456366749993322,1935,1389,511
0.7483294309986377,1923,1343,496
0.7510239779985568,1914,1326,496
0.7537194409997028,2083,1424,553
0.7564132799998333,2098,1439,547
0.7591067849989486,2047,1470,571
0.7618014149993542,1986,1431,535
0.7644978789994639,1951,1385,504
0.7672060089989827,1932,1369,509
0.7699024309986271,1920,1318,475
0.772641436999038,2021,1394,540
0.7753366090000782,2096,1433,549
0.7780335309998918,2064,1456,560
0.7807285359995149,2005,1473,564
0.7834285409990116,1964,1391,502
0.7861262970000098,1935,1376,509
0.7888192190002883,1921,1331,482
0.791512640998917,1932,1346,503
0.7942065209990687,2087,1424,549
0.7969028589996014,2083,1439,545
0.7995964900001127,2030,1471,575
0.8022893699999258,1979,1412,529
0.8049827499999083,1941,1377,509
0.8076743809997424,1924,1358,501
0.8103688439987309,1919,1306,469
0.81306339099865,2005,1397,544
0.8157541879991186,2042,1414,538
0.8184463599991432,2013,1437,554
0.8211400740001409,1978,1437,548
0.8238304539991077,1943,1371,496
0.8265240429991536,1929,1360,506
0.8292226729990944,1922,1324,481
0.8319170529994153,1957,1359,511
0.8346131839989539,2044,1409,543
0.8373099809996347,2034,1424,543
0.8400075689987716,1995,1458,569
0.8426967830000649,1962,1391,506
0.845390413000132,1939,1369,502
0.8480823350000719,1927,1345,495
0.8507774649988278,1923,1311,481
0.8534708869992755,2043,1408,545
0.8561619760002941,2065,1423,540
0.8588558149986056,2031,1453,561
0.8615531119994557,1984,1427,540
0.8642460749997554,1947,1376,500
0.8669392470001185,1927,1365,502
0.8696315029992547,1909,1314,476
0.8723249659997236,1963,1367,523
0.8750189719994523,2019,1405,534
0.877712851999604,2000,1413,544
0.8804024399996706,1970,1451,571
0.8830967789999704,1946,1366,498
0.8857906590001221,1931,1360,502
0.8884811649986659,1923,1330,480
0.8911749199996848,1919,1313,482
0.8938726340002177,2071,1413,546
0.8965970560002461,2081,1425,541
0.8992935189999116,2034,1466,566
0.9019871499986039,1984,1423,531
0.9046814470002573,1954,1379,503
0.90737561899914,1933,1364,499
0.9100718319987209,1924,1313,471
0.9127672119993804,2013,1396,540
0.9154583839990664,2070,1424,544
0.9181533899991337,2034,1444,557
0.9208464779985661,1991,1461,560
0.923538400000325,1959,1382,503
0.9262315719988692,1935,1372,508
0.9289272030000575,1925,1335,485
0.9316212909998285,1937,1349,503
0.9343150879994937,2112,1429,549
0.9370044269999198,2109,1445,549
0.9396961399997963,2047,1485,575
0.9423885619999055,1993,1424,531
0.9450801509992743,1951,1392,511
0.9477707810001448,1935,1365,503
0.9504653280000639,1920,1313,477
0.9531616669992218,2102,1427,554
0.9558546309999656,2162,1459,553
0.9585575940000126,2112,1487,567
0.9612508499994874,2032,1483,561
0.9639416879999771,1975,1413,511
0.9666365269986272,1935,1396,526
0.9693333649993292,1925,1344,487
0.9720274960000097,2021,1392,530
0.9747212929996749,2218,1467,557
0.9774153809994459,2201,1501,570
0.9801068029992166,2111,1535,594
0.9828003919992625,2017,1455,540
0.9854962310000701,1963,1424,529
0.9881898610001372,1932,1382,508
0.9908876159988722,1922,1339,493
0.9935801209994679,2182,1456,560
0.9962701269996614,2227,1494,565
0.9989640900002996,2154,1526,587
1.0017133869987447,2057,1495,563
1.0044426429994928,1985,1437,533
1.0071371479989466,1943,1409,528
1.0098322369995003,1926,1347,487
1.0125250749988481,2107,1426,549
1.015249871999913,2253,1498,573
1.0179462529995362,2198,1520,578
1.020664632998887,2095,1535,595
1.0233587219991023,2009,1450,533
1.026052893999804,1957,1425,535
1.0287766909987113,1932,1376,502
1.0315067379997345,1935,1361,511
1.034232410000186,2211,1470,563
1.036938706998626,2213,1495,562
1.0396322119995602,2122,1531,590
1.042323175999627,2032,1472,549
1.0450146389994188,1970,1426,532
1.0477074779992108,1936,1394,523
1.0504027329989185,1921,1333,481
1.0531006139990495,2160,1455,563
1.0557948269997723,2247,1495,565
1.0584889159999875,2182,1529,576
1.06118200399942,2083,1527,580
1.0638746759996138,2000,1450,533
1.0665677649994905,1951,1424,531
1.0692630199991981,1929,1365,497
1.0719561509995401,2004,1394,533
1.0746466139989934,2224,1482,567
1.0773430779991031,2204,1505,571
1.0800362919999316,2112,1535,593
1.0827308799998718,2027,1463,545
1.085428176998903,1968,1429,534
1.0881276410000282,1936,1392,511
1.0908571049985767,1922,1340,490
1.0935687349992804,2213,1472,571
1.0962660739987768,2266,1502,566
1.0989633699991828,2186,1535,591
1.1016602919989964,2075,1516,572
1.1043515889996343,1990,1450,537
1.1070471780003572,1946,1421,534
1.109743974999219,1923,1359,496
1.1124361049987783,2093,1427,551
1.1151301939989935,2261,1503,569
1.1178297829992516,2218,1527,577
1.1205257049987267,2112,1562,603
1.1232558350002364,2018,1460,539
1.1259543819996907,1961,1434,538
1.1286505959997157,1931,1388,509
1.1313439339992328,1924,1359,503
1.1340396059986233,2257,1481,573
1.1367437779990723,2282,1520,571
1.139442699999563,2177,1559,595
1.1421371639989957,2067,1503,560
1.1448298769992107,1985,1451,541
1.1475254659999337,1945,1416,528
1.1502251799993246,1922,1348,491
1.1529197679992649,2159,1456,562
1.1556126899995434,2285,1514,571
1.1583087789986166,2215,1535,587
1.1610072839994245,2110,1554,592
1.1636992059993645,2009,1461,537
1.166392420000193,1957,1435,540
1.1690902579994145,1934,1378,507
1.1717823050003062,1967,1389,528
1.174477393999041,2251,1487,563
1.17717194099896,2240,1515,573
1.1798663629997463,2143,1554,599
1.1825640770002792,2045,1482,557
1.1852593739986332,1977,1440,539
1.1879523369989329,1936,1403,528
1.1906453009996767,1921,1337,486
1.1933408899985807,2202,1471,571
1.1960318949986686,2287,1516,575
1.1987258579993068,2205,1535,587
1.2014212799986126,2096,1535,579
1.2041132859994832,2000,1459,542
1.2068097489991487,1952,1433,537
1.209505838000041,1932,1367,496
1.2122018430000026,2073,1424,547
1.2148999319997529,2321,1520,580
1.217595561998678,2282,1535,582
1.220288401000289,2160,1586,608
1.2229843650002294,2046,1491,550
1.2256812029991124,1971,1455,542
1.2283733329986717,1936,1406,523
1.2311103800002456,1920,1358,496
1.2338203019990033,2255,1488,572
1.2365165579994937,2301,1526,573
1.23925289699946,2198,1568,593
1.2419475679998868,2087,1520,567
1.244666573998984,1994,1459,548
1.2473604539991356,1945,1424,528
1.2500547090003238,1923,1358,494
1.2527489229996718,2165,1456,559
1.2554443030003313,2336,1534,578
1.2581398919992353,2269,1570,592
1.260836522000318,2143,1586,598
1.2635303609986295,2034,1486,544
1.2662254909992043,1967,1455,545
1.2689217879997159,1935,1393,509
1.271613251999952,1951,1383,511
1.274309173999427,2304,1506,576
1.2770047619997058,2311,1535,577
1.279699183998673,2195,1584,602
1.2823977309999464,2075,1516,561
1.285093861999485,1991,1459,547
1.2877860339995095,1946,1424,530
1.2904822889995557,1925,1353,483
1.2931754189994535,2222,1479,572
1.2958680909996474,2350,1535,578
1.2985648049998417,2261,1579,598
1.3012601020000147,2130,1568,592
1.3039513570001873,2026,1485,551
1.3066459869987739,1959,1454,546
1.309340533998693,1933,1387,509
1.312035080998612,2026,1414,541
1.3147313779991237,2331,1522,581
1.3174256749989581,2307,1558,585
1.3201183059991308,2185,1595,616
1.3228138109989231,2065,1509,561
1.3255066080000688,1984,1465,547
1.3282006129993533,1939,1419,530
1.3308957849985745,1923,1355,496
1.3335932489990228,2267,1492,577
1.336287211999661,2345,1535,581
1.338979300999199,2241,1584,599
1.341669847999583,2114,1555,581
1.3443644779999886,2013,1477,553
1.3470573169997806,1957,1449,543
1.349751906000165,1931,1377,502
1.3524447439995129,2119,1449,556
1.3551403749988822,2359,1535,583
1.357832129999224,2308,1579,591
1.360523759998614,2176,1602,621
1.363300723998691,2059,1504,555
1.3659994379995624,1978,1469,550
1.3686961509993125,1936,1408,511
1.3713891569987027,1929,1370,511
1.3740832029998273,2330,1511,579
1.3767829999997048,2364,1563,586
1.3794763810001314,2239,1598,603
1.3821698439987813,2106,1535,576
1.384863850000329,2003,1481,555
1.3875560220003536,1953,1436,544
1.3902506100002938,1925,1365,496
1.3929447409991553,2204,1475,570
1.3956377879985666,2367,1535,581
1.3983326679990569,2294,1586,596
1.4010260479990393,2160,1598,608
1.403719011999783,2025,1471,531
1.4064136420001887,1968,1469,557
1.4091107719996216,1935,1403,511
1.4118098609997105,1984,1405,530
1.4145057409987203,2372,1533,582
1.4171981219988083,2367,1581,592
1.4198877519993403,2235,1611,617
1.4225817159986036,2097,1535,576
1.425275095998586,2000,1483,557
1.427967018000345,1942,1435,539
1.4306627309997566,1925,1360,490
1.433353028000056,2287,1504,581
1.4360445339989383,2403,1573,587
1.438737372000105,2297,1606,607
1.4414273359998333,2155,1594,594
1.4441166750002594,2031,1501,559
1.4468095550000726,1961,1465,553
1.4495022689989128,1931,1392,507
1.4521936900000583,2085,1438,553
1.4548829039995326,2426,1563,592
1.4575744929989014,2389,1603,598
1.4602632480000466,2239,1634,627
1.4629556700001558,2094,1535,569
1.465647799999715,1990,1490,559
1.468340014000205,1942,1433,535
1.4710345189996588,1921,1366,503
1.4737305250000645,2339,1522,589
1.4764250299995183,2422,1585,592
1.4791179519997968,2304,1621,617
1.481812373998764,2150,1588,592
1.4845034209993173,2031,1510,558
1.487206468000295,1959,1466,551
1.4899021399996855,1934,1392,503
1.4926238949992694,2176,1472,563
1.4953183999987232,2439,1584,593
1.4980143639986636,2373,1616,599
1.50070695300019,2213,1641,625
1.5034005409997917,2077,1529,563
1.5060972129995207,1982,1483,555
1.508792259999609,1936,1424,528
1.5114830570000777,1933,1387,511
1.5141771460002929,2389,1535,587
1.5168720679994294,2422,1595,592
1.5195571559997916,2288,1631,622
1.522248702998695,2129,1579,583
1.5249457919999259,2020,1505,560
1.5276393809999718,1951,1457,550
1.5303343859995948,1932,1379,501
1.533029557998816,2245,1498,576
1.5357238969991158,2431,1584,592
1.538416192999648,2347,1617,607
1.5411103650003497,2192,1624,615
1.543803245998788,2064,1522,559
1.5464936680000392,1979,1485,555
1.5491827979985828,1939,1414,524
1.5518748449994746,1975,1409,533
1.554569599999013,2322,1520,577
1.557264438999482,2310,1555,579
1.55995544399957,2192,1590,608
1.5626509909998276,2065,1519,562
1.5653451629987103,1982,1466,553
1.5680380849989888,1938,1424,533
1.570733257000029,1923,1353,492
1.5734277209994616,2337,1516,587
1.5761188929991476,2481,1596,598
1.5788150649987074,2367,1638,619
1.581508027999007,2192,1623,609
1.5841992839996237,2057,1527,567
1.586894496998866,1970,1485,562
1.589589002998764,1934,1406,511
1.592280007998852,2096,1455,560
1.594973637998919,2482,1586,599
1.5976663929995993,2441,1632,608
1.6003595239999413,2275,1662,634
1.603054154000347,2114,1571,578
1.6057535759991879,2003,1511,566
1.6084437899990007,1947,1439,534
1.6111371280003368,1922,1383,511
1.613830591999431,2379,1535,591
1.6165220549992227,2465,1610,593
1.6192413110002235,2337,1647,622
1.6219366489985987,2165,1603,596
1.624651570999049,2028,1520,570
1.6273449519994756,1961,1473,560
1.6300407069993526,1931,1393,507
1.6327688789988315,2197,1485,564
1.6354731760002323,2455,1589,596
1.6381702649996441,2383,1626,611
1.6408628119988862,2221,1648,630
1.6435538999994606,2077,1533,567
1.6462471559989353,1985,1491,563
1.648938285999975,1936,1424,530
1.6516289999999572,1934,1392,527
1.6543225049990724,2391,1535,592
1.657016051998653,2422,1595,593
1.6597071399992274,2282,1632,624
1.6624008959988714,2130,1570,582
1.6650966509987484,2015,1502,562
1.6677892400002747,1952,1455,549
1.6704837449997285,1922,1376,496
1.6731776670003455,2262,1503,578
1.6758697559998836,2436,1587,594
1.678564802999972,2351,1619,608
1.6812576409993198,2187,1620,619
1.6839487710003596,2055,1523,561
1.6866424019990518,1971,1485,560
1.6893374489991402,1935,1410,526
1.6920277869994607,2012,1421,537
1.694721001000289,2420,1559,590
1.6974172979989817,2409,1600,593
1.7001104279988795,2257,1636,623
1.7028043089994753,2108,1558,580
1.7054966059986327,2000,1495,561
1.7081878609988053,1951,1444,542
1.7108930329995928,1925,1360,491
1.7135962880001898,2368,1525,579
1.7162929599999188,2513,1610,592
1.7189955489993736,2384,1649,612
1.7216920959999698,2199,1629,601
1.7243829759991058,2058,1535,566
1.7270771059993422,1967,1488,559
1.7297745699997904,1927,1407,507
1.7324681999998575,2147,1471,558
1.7351618719985709,2527,1604,601
1.737856419000309,2475,1651,614
1.7405481329988106,2291,1691,655
1.7432923879987356,2118,1585,589
1.745994310000242,1999,1526,576
1.7486904819998017,1938,1455,544
1.751381529000355,1923,1391,523
1.7540766179990896,2374,1535,593
1.756780247998904,2433,1599,596
1.7594798369991622,2302,1634,622
1.7621786339987011,2141,1585,593
1.7648747639996145,2019,1511,563
1.767567228000189,1957,1462,554
1.7702608580002561,1927,1386,502
1.772955237998758,2225,1488,567
1.7756472439996287,2450,1588,593
1.7783408739996958,2373,1623,607
1.7810375459994248,2210,1642,624
1.7837325929995131,2068,1533,565
1.7864282649989036,1979,1488,565
1.7891224779996264,1936,1422,528
1.7918156089999684,1965,1406,534
1.7945143219985766,2434,1559,591
1.7972103689990035,2447,1612,599
1.7999016659996414,2294,1647,625
1.802594421998947,2130,1579,584
1.8052899689992046,2012,1518,572
1.807981973999631,1953,1463,553
1.8106763129999308,1924,1382,498
1.8133704009997018,2333,1521,583
1.8160606149995147,2522,1620,609
1.8187558699992223,2406,1661,624
1.8214562920002209,2223,1651,623
1.8241502139990189,2071,1535,575
1.8268469689992344,1971,1503,567
1.8295407249988784,1933,1423,528
1.8322338130001299,2065,1450,551
1.8349278599998797,2491,1591,603
1.8376212410003063,2461,1638,610
1.84031466200031,2292,1667,635
1.8430059179991076,2126,1584,585
1.845700339999894,2005,1522,575
1.8483943869996438,1944,1457,547
1.8510857250003028,1924,1380,508
1.8537816469997779,2391,1535,594
1.8564760689987452,2511,1620,603
1.859170116000314,2371,1661,625
1.8618651219985622,2193,1628,608
1.8645563350000884,2053,1535,574
1.8672803819990804,1968,1492,565
1.869977262998873,1929,1406,511
1.872671225999511,2170,1483,567
1.8753629399998317,2484,1599,603
1.8780588199988415,2417,1635,612
1.8807515339995007,2250,1662,637
1.8834436219985946,2098,1558,576
1.8861373780000577,1991,1509,572
1.8888350079996599,1938,1439,538
1.8915297219991771,1926,1392,511
1.8942258520000905,2439,1562,595
1.8969197320002422,2501,1622,603
1.899610237998786,2351,1661,627
1.9023049930001434,2172,1607,595
1.9049992479995126,2032,1535,576
1.9076950449998549,1957,1484,560
1.9103907169992453,1929,1394,510
1.9130868470001587,2282,1514,582
1.915781560999676,2530,1615,603
1.9184783999990032,2434,1664,622
1.9211745299999166,2251,1671,631
1.9238669099995604,2094,1567,578
1.9265604159991199,1984,1517,573
1.9292575459985528,1937,1442,534
1.9319502589987678,1985,1424,541
1.9346484309990046,2524,1597,607
1.9373449779996008,2537,1651,617
1.9400374839988217,2354,1687,640
1.9427292809996288,2165,1610,595
1.9454207029993995,2026,1535,581
1.9481111659988528,1952,1475,557
1.9508026299990888,1920,1389,502
1.9534956770003191,2352,1535,591
1.956187306999709,2536,1631,608
1.9588827709994803,2416,1669,626
1.9615760679989762,2226,1653,623
1.9642679059998045,2075,1559,578
1.9669621619996178,1976,1508,573
1.969657042000108,1931,1424,528
1.9723518809987581,2089,1456,558
1.9750466360001155,2514,1600,603
1.977741683000204,2482,1648,615
1.9804329379985575,2303,1679,640
1.9831269850001263,2128,1589,586
1.9858213649986283,2007,1527,572
1.9885145789994567,1945,1459,542
1.9912396259987872,1920,1385,510
1.9939358809988335,2413,1556,595
1.9966555529990728,2517,1628,609
1.9993493919992034,2384,1666,627
2.00209589699989,2192,1626,611
2.004829235998841,2056,1535,576
2.007522699999754,1968,1493,561
2.010218454999631,1929,1406,511
2.0129150439988734,2224,1498,573
2.015609506999681,2524,1616,606
2.0183056789992406,2448,1653,614
2.0209995599998365,2266,1682,644
2.0236927730002208,2098,1569,582
2.02638627899978,1989,1522,577
2.029079742000249,1938,1445,540
2.031770997999047,1941,1398,531
2.034494002999054,2486,1581,599
2.037201216999165,2526,1646,611
2.0399195549998694,2359,1679,634
2.042649019000237,2174,1611,598
2.045348648998697,2032,1535,574
2.0480456959994626,1952,1475,552
2.050741826999001,1922,1390,502
2.0534343740000622,2274,1517,582
2.0561255869997694,2448,1595,595
2.058827384000324,2352,1630,614
2.061523930999101,2192,1627,615
2.064217395000014,2058,1527,569
2.0669126079992566,1971,1488,563
2.069607654999345,1936,1411,526
2.073622329999125,2043,1433,545
2.0763318769986654,2480,1582,603
2.079028965999896,2383,1616,608
2.081724428999223,2205,1613,605
2.0844190589996288,2062,1523,561
2.0871158150002884,1973,1483,559
2.0898129870001867,1931,1405,511
2.092503866999323,2116,1455,555
2.0952064559987775,2528,1600,602
2.0979037529996276,2487,1648,614
2.1006245499993383,2305,1679,642
2.1033195549989614,2128,1588,581
2.106015684999875,2005,1522,574
2.1087111910001113,1945,1455,548
2.111405403999015,1922,1390,511
2.114101450999442,2447,1568,602
2.116794581999784,2544,1639,608
2.119484419999935,2391,1678,624
2.1221732169997267,2199,1635,611
2.1248669719989266,2059,1535,576
2.1275607279985707,1968,1491,564
2.130255149999357,1930,1408,525
2.132949863000249,2235,1502,573
2.135641494000083,2557,1626,608
2.138335998999537,2469,1667,622
2.1410330879989488,2285,1692,645
2.1437282179995236,2110,1579,582
2.1464250150002044,1990,1522,575
2.1491160200002923,1939,1449,540
2.1518047339995974,1938,1404,527
2.154496196999389,2505,1584,598
2.157192536000366,2550,1649,613
2.1598849579986563,2381,1689,640
2.162580213000183,2185,1623,602
2.1652760099987063,2042,1535,578
2.1679683069996827,1962,1489,560
2.1706643540001096,1928,1401,509
2.1733596089998173,2405,1558,593
2.1760554899992712,2698,1683,626
2.1787537449999945,2555,1733,643
2.1814482499994483,2321,1728,654
2.184140588999071,2123,1615,592
2.186836218999815,1995,1535,582
2.1895275999995647,1933,1456,541
2.1922183129991026,2032,1455,555
2.1949127770003543,2653,1642,623
2.197608532000231,2640,1713,633
2.200295204000213,2423,1744,661
2.202992792999794,2199,1661,621
2.205687797999417,2040,1583,592
2.208389552999506,1953,1498,566
2.21110255900021,1920,1402,509
2.2138086469985865,2524,1607,620
2.2165047359994787,2736,1713,631
2.2192438659985783,2557,1762,657
2.221941537998646,2302,1727,638
2.2246595849992445,2102,1625,599
2.2273533819989098,1984,1553,585
2.2300504710001405,1931,1447,533
2.232745850998981,2203,1516,577
2.2354386480001267,2672,1666,624
2.238135820000025,2603,1723,638
2.240833742000177,2373,1748,663
2.2435301639998215,2165,1639,605
2.246222919999127,2018,1571,592
2.248915299998771,1950,1483,557
2.2516068469994934,1924,1410,528
2.2542996020001738,2499,1591,612
2.2569948569998814,2581,1664,619
2.259687445999589,2401,1701,643
2.262380492999,2199,1648,619
2.265074372999152,2047,1567,587
2.267764211999747,1959,1498,564
2.2704572589991585,1923,1408,510
2.2731527220003045,2361,1535,589
2.275844727999356,2775,1702,635
2.278540774999783,2657,1762,654
2.281234737998602,2385,1776,671
2.283927077000044,2160,1651,611
2.2866212070002803,2000,1583,596
2.289315670999713,1938,1479,559
2.292009175998828,1973,1442,549
2.2947046399985993,2713,1662,632
2.2973993119994702,2758,1748,646
2.3000923589988815,2512,1789,672
2.3027878220000275,2256,1707,633
2.3054846189988893,2068,1616,601
2.308178040999337,1965,1533,576
2.3108729220002715,1921,1425,525
2.313565552,2479,1601,615
2.3162527659987973,2767,1726,641
2.318946813000366,2607,1776,659
2.321643776000201,2346,1759,661
2.3243358229992737,2128,1639,603
2.3270297029994254,1991,1571,592
2.3297349589993246,1936,1466,544
2.3324259639994125,2097,1485,565
2.3351203439997334,2725,1676,637
2.337817265999547,2702,1747,643
2.3405116880003334,2449,1778,673
2.3432315689988172,2213,1680,624
2.3459266159989056,2037,1598,597
2.348643579000054,1943,1510,563
2.3513377099989157,1919,1411,523
2.354030631999194,2559,1616,623
2.3567232619989227,2737,1719,638
2.3594139340002585,2542,1767,666
2.362108105999141,2298,1723,646
2.3648019029988063,2099,1622,604
2.3674955329988734,1978,1535,582
2.3701904129993636,1926,1444,531
2.372885876999135,2235,1521,581
2.375577673999942,2695,1679,631
2.3782732210001996,2620,1738,645
2.3809656430003088,2383,1757,669
2.383656814999995,2162,1646,607
2.3863522369993007,2015,1573,592
2.3890469090001716,1946,1483,558
2.3917317889990954,1924,1414,530
2.39442425299967,2597,1620,621
2.3971199659990816,2688,1710,633
2.3998124720001215,2480,1746,656
2.402508268998645,2255,1689,626
2.4052031909996003,2075,1599,598
2.407895696000196,1968,1522,576
2.410587159998613,1925,1424,525
2.413289456999337,2347,1535,591
2.416002545000083,2695,1685,630
2.4187263839994557,2559,1737,646
2.421456138999929,2334,1741,657
2.424160769998707,2129,1623,595
2.4268538169999374,1999,1554,581
2.429553488998863,1936,1459,543
2.432247451999501,2015,1453,553
2.434943623999061,2651,1645,624
2.4376368789999106,2651,1713,637
2.4403269679987716,2430,1746,659
2.443022182000277,2209,1662,618
2.445714395000323,2044,1584,592
2.448407108999163,1952,1504,566
2.4510987809990183,1921,1408,510
2.4537895359990216,2477,1591,609
2.4564793329991517,2698,1698,627
2.459169796999049,2535,1743,651
2.461863552000068,2299,1719,646
2.4645572239987814,2109,1613,598
2.46728702099972,1985,1535,587
2.4699810259990045,1930,1447,539
2.472674239999833,2145,1490,572
2.4753646199987998,2652,1653,624
2.478055958999903,2609,1713,637
2.4807487139987643,2384,1744,661
2.483438719998958,2170,1646,609
2.486131474999638,2027,1573,589
2.4888249389987323,1949,1487,555
2.491516109999793,1917,1403,511
2.494207240999458,2544,1607,615
2.496902578999652,2686,1699,630
2.4995955849990423,2495,1741,655
2.5022900479998498,2268,1696,635
2.5049842619991978,2085,1601,595
2.507676350998736,1974,1533,576
2.5103711889987608,1926,1428,528
2.513064945000224,2271,1523,583
2.5157555749992753,2693,1678,625
2.5184482879994903,2602,1731,646
2.5211404189994937,2363,1751,671
2.523830131998693,2153,1634,604
2.5265227210002195,2011,1569,591
2.5292171429991868,1940,1472,547
2.531909106999592,1935,1419,535
2.534604237000167,2607,1622,619
2.537295700998584,2671,1703,626
2.53998691400011,2463,1743,656
2.5426797939999233,2235,1680,624
2.545372257998679,2064,1593,594
2.5480635129988514,1964,1519,576
2.5507548519999546,1921,1419,524
2.5534448159996828,2384,1564,596
2.5561366959991574,2705,1693,630
2.558827326000028,2559,1743,646
2.561524164999355,2335,1743,655
2.5642162949989142,2128,1625,599
2.566912133999722,1999,1562,589
2.569606846998795,1936,1466,545
2.572299227998883,2003,1450,552
2.574991940999098,2641,1639,624
2.5776857799992285,2654,1712,634
2.5803753689997393,2432,1744,661
2.5830700409987912,2207,1664,621
2.585766670999874,2046,1584,593
2.5884563849995175,1958,1505,566
2.59114947299895,1921,1407,511
2.593846436999229,2480,1594,611
2.5965384840001207,2715,1699,630
2.599261071998626,2547,1747,655
2.6019549109987565,2307,1725,646
2.6046509999996488,2110,1618,599
2.60734296299961,1984,1535,587
2.610037176998958,1927,1451,537
2.6127330159997655,2147,1494,569
2.6154236879992823,2683,1665,626
2.6181164009994973,2634,1726,640
2.6208069900003466,2401,1754,667
2.6234984120001172,2179,1652,610
2.626193333999254,2030,1583,592
2.628886671998771,1947,1489,560
2.6315860529994097,1920,1403,511
2.6342802660001325,2593,1621,624
2.6369728129993746,2737,1722,637
2.63966448499923,2538,1765,661
2.6423574489999737,2288,1715,642
2.645047120999152,2093,1616,603
2.6477377510000224,1975,1535,583
2.6504274229992006,1926,1440,533
2.6531156780001766,2282,1535,589
2.6558055999994394,2708,1686,635
2.6584939809999923,2615,1744,647
2.6611881110002287,2374,1761,675
2.663880115998836,2159,1642,608
2.6665750379997917,2012,1573,594
2.6692683349992876,1939,1481,558
2.6719568819989945,1935,1419,534
2.674648721000267,2625,1629,624
2.6773407679993397,2704,1714,638
2.680030772999089,2483,1754,659
2.682724487000087,2251,1690,629
2.685420116999012,2067,1600,596
2.6881127469987405,1967,1522,576
2.6908085029990616,1920,1424,525
2.6935024249996786,2381,1565,598
2.6961924719998933,2717,1697,631
2.6988833929990506,2587,1747,650
2.701578106998568,2346,1745,661
2.704272320999735,2135,1632,602
2.7088851629996498,2000,1567,592
2.711613669000144,1917,1423,529
2.714322132000234,2559,1626,626
2.7170179709992226,2717,1718,640
2.719713058999332,2510,1747,651
2.7224079810002877,2282,1712,640
2.7250999030002276,2091,1616,601
2.727787616999194,1977,1535,582
2.730476580998584,1923,1438,529
2.7331653780001943,2278,1534,589
2.7358521749993088,2698,1680,627
2.7385559719987214,2605,1723,634
2.7412549769996986,2368,1761,673
2.743946523998602,2157,1642,607
2.7466368209989014,2003,1574,592
2.7493280339986086,1938,1477,555
2.752017247999902,1935,1419,539
2.7547066699989955,2627,1618,615
2.7573941749997175,2707,1718,637
2.760082306000186,2490,1757,662
2.762770018998708,2250,1693,631
2.7654577739995148,2071,1601,598
2.7681450709987985,1968,1526,576
2.770833534999838,1922,1424,526
2.7735214570002427,2359,1558,595
2.7762087959999917,2693,1687,629
2.7788958009987255,2559,1739,650
2.781585639999321,2335,1743,659
2.7842741449985624,2128,1625,603
2.7869647329989675,2000,1563,589
2.7896538639997743,1936,1466,547
2.79234099399946,1991,1442,550
2.79503079099959,2659,1643,624
2.7977185459985776,2675,1718,640
2.8004040519990667,2452,1754,662
2.803093431999514,2224,1674,621
2.8057803539995803,2053,1591,592
2.8084664839989273,1961,1513,562
2.8111531979993742,1921,1412,511
2.8138409949988272,2455,1589,610
2.8165303749992745,2722,1703,632
2.8192628799988597,2559,1755,655
2.821952718999455,2320,1737,656
2.8246650989985937,2113,1623,603
2.8273533129995485,1991,1557,589
2.8300421519998054,1934,1456,542
2.8327304489994276,2103,1483,571
2.8354171619994304,2657,1652,624
2.8381209170001966,2624,1715,636
2.840819756000201,2400,1745,666
2.84351188599976,2183,1651,613
2.8462032669995097,2029,1579,592
2.8488940639999782,1947,1490,559
2.85158227699867,1918,1402,511
2.8542699909994553,2558,1611,615
2.8569573299992044,2735,1713,637
2.859643709998636,2538,1757,657
2.8623334650001198,2293,1718,646
2.8650213450000592,2098,1616,604
2.867708600999322,1977,1535,586
2.8703962309991766,1930,1442,533
2.8730866109999624,2224,1519,583
2.8757733669990557,2705,1680,629
2.8784622469993337,2627,1739,645
2.881152709998787,2384,1760,670
2.883840173999488,2170,1647,611
2.886526928999956,2018,1578,592
2.889215350998711,1943,1487,558
2.891902814999412,1920,1413,528
2.894591361999119,2606,1621,621
2.897280076000243,2705,1713,634
2.8999672469999496,2499,1755,657
2.9026561279988528,2258,1698,634
2.9053476749995752,2078,1604,595
2.9080340969994722,1968,1531,577
2.910724143999687,1923,1430,528
2.9134134409996477,2321,1535,591
2.9161038209986145,2702,1687,629
2.918791367999802,2593,1739,644
2.9214799149995088,2357,1757,656
2.924166836999575,2143,1633,601
2.9268548839991126,2005,1570,589
2.9295443889986927,1938,1471,549
2.932231602999309,1959,1425,539
2.934918691000348,2650,1634,622
2.9376052799998433,2694,1718,630
2.940307243999996,2478,1757,661
2.943008665999514,2240,1681,623
2.9457027119988197,2064,1597,594
2.9483935509997536,1959,1519,574
2.951083972999186,1921,1420,522
2.9537741450003523,2405,1574,598
2.956461275000038,2698,1693,627
2.9591506969991315,2556,1743,646
2.96183966100034,2322,1739,654
2.9645287080002163,2126,1621,596
2.9672577129986166,1996,1559,586
2.969949884998641,1936,1460,544
2.9726644740003394,2023,1456,555
2.975356020999243,2512,1602,601
2.9780566509998607,2497,1654,614
2.9807465729991236,2320,1682,640
2.9834342449994438,2141,1603,595
2.9861227499986853,2005,1534,576
2.9888114639998093,1942,1471,551
2.9914980529993045,1918,1382,496
2.9941886409997096,2521,1587,607
2.996878938000009,2739,1706,629
2.9995668599985947,2559,1750,653
3.0023069069993653,2311,1727,645
3.0050228709988005,2107,1621,599
3.007713500999671,1984,1535,583
3.0104038809986378,1930,1450,533
3.013093719999233,2202,1514,576
3.0157812669986015,2701,1678,630
3.0184693559986044,2634,1735,639
3.021158485998967,2395,1760,670
3.0238466579994565,2176,1649,606
3.026534496999375,2026,1579,592
3.0292225430002873,1947,1488,559
3.0319098820000363,1919,1412,528
3.034598428999743,2545,1610,620
3.0372861429987097,2665,1697,633
3.039989439999772,2475,1734,652
3.0426899029989727,2250,1680,631
3.0453827000001183,2077,1595,592
3.048097038999913,1968,1523,576
3.05081496099956,1923,1424,525
3.053515757999776,2327,1535,587
3.0562100970000756,2703,1684,626
3.0589027690002695,2591,1738,646
3.061595565999596,2352,1751,656
3.0642872369990073,2142,1629,598
3.0669836179986305,2001,1565,587
3.0696781229999033,1936,1472,549
3.0723739200002456,1965,1429,543
3.0750712169992767,2622,1627,619
3.077767806000338,2658,1707,631
3.080459143999178,2447,1742,656
3.083154232999732,2224,1666,622
3.0858476550001797,2055,1587,593
3.088540701999591,1963,1506,566
3.0912586659997032,1920,1412,511
3.093951920998734,2417,1575,607
3.0966460929994355,2672,1683,625
3.0993388059996505,2529,1731,647
3.1020340619998024,2302,1717,647
3.1047316499989392,2110,1609,595
3.107427031000043,1986,1535,583
3.110121702999095,1934,1453,537
3.1128157499988447,2066,1466,559
3.115508504999525,2615,1635,618
3.1182009690000996,2597,1697,630
3.120894640998813,2384,1729,657
3.1235863959991548,2176,1638,608
3.126280025999222,2027,1567,586
3.128976739999416,1951,1488,560
3.1316675369998848,1920,1397,511
3.1343619170002057,2480,1584,612
3.137058172000252,2644,1677,624
3.139756843998839,2478,1721,645
3.1424558910002816,2260,1686,637
3.145150771999397,2081,1591,592
3.1478434019991255,1973,1525,576
3.1505345739988115,1931,1426,528
3.153227536999111,2209,1505,576
3.1559170429991354,2651,1657,624
3.1586117560000275,2559,1712,634
3.1613049279985717,2359,1737,659
3.1639970999985962,2153,1625,599
3.1666901059998054,2014,1564,591
3.169387193998773,1940,1474,553
3.1720791579991783,1923,1408,528
3.1747725379991607,2514,1595,610
3.177466002000074,2613,1671,614
3.180158548999316,2430,1712,643
3.182850803999827,2221,1661,619
3.1855453930002113,2062,1573,588
3.1882350649993896,1968,1509,569
3.1909299029994145,1925,1414,511
3.193623616998593,2301,1529,586
3.196314621998681,2637,1659,623
3.1990096279987483,2527,1709,637
3.2017044659987732,2298,1712,643
3.204396846000236,2123,1607,594
3.2070917269993515,2000,1535,585
3.209785731998636,1936,1459,543
3.21247627899902,1967,1424,534
3.2151685759999964,2555,1604,609
3.217863789999683,2559,1671,618
3.220554544999686,2388,1706,646
3.223275008998826,2191,1635,606
3.2259703889994853,2035,1563,585
3.228665352999087,1955,1490,565
3.231358357999852,1922,1397,507
3.2340544879989466,2373,1555,595
3.2367921599998226,2606,1651,613
3.2394976659998065,2467,1695,638
3.2421938379993662,2258,1683,631
3.2448887179998565,2087,1584,586
3.2475799309995637,1983,1522,576
3.250275102998785,1935,1437,531
3.2529675669993594,2098,1468,558
3.2556603220000397,2592,1627,614
3.2583523279990914,2555,1680,624
3.2610429159994965,2357,1712,652
3.2637331299993093,2157,1623,600
3.2664261769987206,2019,1535,581
3.2691208489995915,1950,1478,556
3.27181347899932,1916,1394,511
3.274508275999324,2426,1569,604
3.277201447999687,2547,1645,613
3.279895536999902,2403,1682,638
3.282591874998616,2211,1648,621
3.2852867559995502,2063,1559,576
3.2879767609992996,1968,1500,569
3.290672891000213,1929,1418,525
3.293365396999434,2164,1482,571
3.296060901999226,2496,1601,603
3.298758156999611,2436,1645,611
3.30145482899934,2265,1669,640
3.3041463760000624,2106,1566,577
3.3068413809996855,1997,1511,570
3.3095361779996892,1941,1439,542
3.3122290999999677,1925,1391,522
3.3149248139998235,2345,1533,591
3.317618777999087,2383,1582,592
3.320310449998942,2269,1614,614
3.3230041629994957,2127,1568,589
3.325697501999457,2000,1488,553
3.3283890490001795,1956,1457,553
3.331084096000268,1929,1379,499
3.333780475999447,2223,1486,572
3.336471939999683,2440,1581,592
3.3391644450002786,2358,1615,607
3.3418572840000706,2198,1631,619
3.3445488719989953,2066,1522,566
3.3472687939993193,1979,1488,562
3.349962966000021,1936,1418,527
3.3526589719986077,1968,1404,533
3.3553515179992246,2437,1535,590
3.3580433989991434,2443,1605,594
3.3607377789994644,2289,1646,623
3.363430117999087,2128,1579,582
3.3661479559996224,2015,1514,567
3.3688428369987378,1953,1459,550
3.3715344249994814,1926,1374,496
3.374230264000289,2321,1522,591
3.3769265609989816,2480,1603,597
3.3796186500003387,2365,1643,620
3.382315529999687,2194,1630,613
3.3850109100003465,2059,1535,576
3.3877028320002864,1970,1494,562
3.390396086999317,1935,1414,525
3.393093217999194,2081,1447,553
3.395786222999959,2480,1584,597
3.398481019999963,2448,1630,602
3.40117677499984,2283,1661,633
3.4038687809988915,2117,1575,582
3.4065632860001642,2000,1514,573
3.4092584999998508,1947,1454,544
3.4119490049997694,1923,1381,504
3.414643801999773,2379,1535,591
3.417340473999502,2481,1609,599
3.420032062000246,2352,1648,624
3.4227266509988112,2177,1615,605
3.42542361499909,2042,1531,571
3.4281160369991994,1966,1487,561
3.4308110419988225,1931,1404,511
3.4335065059985936,2178,1480,565
3.436199593999845,2491,1598,595
3.4388931409994257,2423,1638,608
3.4415880629985622,2254,1663,634
3.444279942999856,2097,1563,576
3.446973906999119,1994,1511,574
3.4496675369991863,1937,1441,540
3.452358500999253,1929,1389,524
3.455050714999743,2443,1559,595
3.4577422619986464,2500,1621,606
3.4604346420001093,2352,1663,631
3.4631251889986743,2168,1611,598
3.465815985999143,2034,1534,575
3.468505949000246,1961,1482,560
3.4712273299992376,1926,1396,511
3.473921793000045,2259,1507,577
3.476642923998952,2476,1601,599
3.4793363459994,2390,1642,612
3.482031392999488,2224,1648,624
3.4847262729999784,2077,1535,569
3.487419236998903,1978,1495,563
3.4901164499988226,1936,1424,528
3.4928134139991016,1959,1408,533
3.495504627999253,2282,1511,575
3.4981989249990875,2287,1535,573
3.5008915130001697,2176,1581,601
3.5035825180002576,2066,1511,561
3.5062787320002826,1989,1466,553
3.5089720289997786,1947,1424,535
3.5116656179998245,1927,1356,493
3.5143589149993204,2207,1477,571
3.5170535870001913,2315,1526,575
3.51974700899882,2234,1563,589
3.5224423469990143,2113,1555,583
3.5251355609998427,2017,1474,545
3.5278266909990634,1963,1449,544
3.530520529999194,1936,1383,503
3.533213409999007,2037,1418,544
3.5359057069999835,2301,1510,576
3.538601378999374,2269,1535,577
3.54129680099868,2160,1577,604
3.543988473000354,2047,1491,554
3.546684019998793,1982,1457,547
3.549379358999431,1941,1411,529
3.5520719889991597,1929,1356,497
3.5547666189995653,2277,1494,576
3.557459290999759,2350,1535,576
3.560151046000101,2247,1584,602
3.5628429270000197,2115,1555,582
3.5655366819992196,2014,1477,554
3.5682281869994767,1959,1451,546
3.5709229839994805,1931,1379,502
3.573616822999611,2112,1450,555
3.5763071199999104,2335,1530,576
3.578999916999237,2287,1563,583
3.581695089000277,2162,1596,619
3.5843890939995617,2047,1494,555
3.587085057999502,1974,1463,555
3.5897808959998656,1938,1408,528
3.5924728179998056,1927,1365,503
3.5951662400002533,2285,1495,573
3.5978590790000453,2314,1535,578
3.6005512929987162,2208,1574,599
3.603272131000267,2091,1526,569
3.6059671370003343,1998,1470,550
3.6086609339999995,1951,1435,543
3.6113527309989877,1934,1363,496
3.6140467779987375,2207,1472,566
3.616742323998551,2379,1535,583
3.6194337460001407,2299,1585,601
3.622128793000229,2160,1599,609
3.6248223399998096,2045,1501,558
3.627512178998586,1970,1470,558
3.630205059000218,1936,1405,523
3.632899272999566,1973,1398,531
3.6355898619985965,2352,1522,581
3.638282158999573,2353,1569,586
3.640975371999957,2224,1602,609
3.6436666270001297,2096,1531,571
3.646361007999076,1998,1481,560
3.6490582209989952,1949,1439,542
3.651751601999422,1927,1360,493
3.6544431490001443,2274,1501,578
3.6571340289992804,2399,1567,582
3.6598197009989235,2301,1603,603
3.662511122998694,2154,1590,597
3.665202710999438,2036,1506,560
3.66789371699997,1968,1472,557
3.670584471999973,1935,1399,511
3.673272518999511,2066,1435,546
3.6759630659998948,2399,1535,586
3.678656987998693,2368,1593,591
3.6813527020003676,2227,1622,623
3.6840427489987633,2089,1535,571
3.6867358370000147,1994,1489,563
3.6894303419994685,1945,1435,538
3.69212155599962,1927,1367,506
3.694815019998714,2320,1519,587
3.697507441998823,2402,1574,589
3.700197488999038,2291,1609,610
3.7028913689991896,2141,1582,592
3.705585498999426,2029,1503,560
3.708276212999408,1963,1467,554
3.7109674269995594,1930,1391,506
3.7136857240002428,2155,1461,561
3.7163822289985546,2416,1563,587
3.7190809009989607,2354,1601,595
3.721779030998732,2205,1627,624
3.7244725780001318,2071,1525,561
3.727165958000114,1984,1483,563
3.729860464000012,1939,1424,528
3.7325521359998675,1930,1378,511
3.7352732660001493,2242,1493,574
3.737970645999667,2266,1521,571
3.7406666520000726,2173,1558,592
3.7433756569989782,2071,1509,562
3.7460811210003158,1993,1457,547
3.7487782509997487,1951,1425,534
3.751472214999012,1935,1360,490
3.7541650949988252,2132,1454,560
3.7568654339993373,2256,1502,567
3.759557772000335,2197,1526,577
3.7622496519998094,2097,1535,587
3.7649406990003627,2009,1456,539
3.767632954999499,1951,1437,544
3.770327626998551,1926,1378,507
3.7730213819995697,1966,1382,524
3.7757142209993617,2304,1495,574
3.778409725999154,2302,1531,575
3.7811099809987354,2186,1577,605
3.783803237000029,2073,1507,561
3.7864970329992502,1987,1463,546
3.789186955000332,1947,1423,530
3.7918778769999335,1927,1351,489
3.794571716000064,2271,1495,576
3.797275887998694,2385,1558,586
3.799967060000199,2288,1595,599
3.802660023999124,2146,1584,593
3.8053549870001007,2032,1495,561
3.80804740900021,1967,1465,555
3.810743789999833,1936,1394,511
3.8134396280001965,2078,1437,554
3.816131800000221,2384,1535,589
3.8188268470003095,2350,1584,592
3.8215204769985576,2211,1613,622
3.8242116490000626,2077,1522,566
3.826905738000278,1984,1483,560
3.829599992999647,1939,1427,531
3.8322917069999676,1923,1367,503
3.8349826710000343,2346,1520,586
3.837712050999471,2416,1582,591
3.8404167649987357,2297,1616,610
3.843116227999417,2145,1582,589
3.8458113169999706,2022,1504,561
3.8485041139992973,1960,1465,553
3.851219576999938,1930,1389,503
3.853913165999984,2187,1477,561
3.8566281299990806,2416,1573,590
3.859321635000015,2353,1609,600
3.862014348998855,2198,1631,622
3.8647041040003387,2064,1526,561
3.8673939839991363,1981,1487,560
3.870084197998949,1936,1422,528
3.8727811199987627,1943,1392,528
3.875475249998999,2400,1535,585
3.8781697140002507,2416,1591,592
3.8808633019998524,2279,1625,619
3.8835533909987134,2127,1566,581
3.8862474799989286,2012,1501,560
3.8889422769989324,1951,1456,545
3.891633823999655,1922,1375,496
3.8943289119997644,2254,1495,577
3.897023833998901,2414,1574,591
3.899714839999433,2320,1608,601
3.9024108029989293,2172,1609,606
3.9051080999997794,2053,1510,560
3.9078028139992966,1971,1475,558
3.910497568998835,1936,1408,511
3.9131906579987117,1986,1411,540
3.91588066300028,2247,1500,576
3.9185732519999874,2238,1521,573
3.921265715000118,2143,1559,597
3.923955803998979,2043,1488,558
3.926648683998792,1978,1450,546
3.929339065000022,1943,1409,528
3.9320324450000044,1930,1345,489
3.9347268250003253,2183,1471,566
3.9374239970002236,2250,1503,562
3.940116293999381,2179,1533,582
3.9428093829992577,2080,1520,575
3.946395680999558,2000,1455,535
3.9491003949988226,1955,1433,539
3.951796191999165,1931,1348,487
3.9544935309986613,2192,1471,561
3.9571865779998916,2297,1519,573
3.9598786249989644,2222,1535,585
3.962572337999518,2109,1535,583
3.9652652189997752,2013,1467,542
3.9679565989990806,1959,1444,541
3.9706479369997396,1934,1384,505
3.973342025999955,2019,1409,534
3.976032780999958,2317,1516,576
3.9787255369992636,2293,1535,579
3.9814183339985902,2176,1583,603
3.984107172000222,2064,1505,560
3.986803260999295,1986,1463,549
3.9894968079988757,1941,1418,528
3.9921894799990696,1931,1355,497
3.994884068999454,2259,1492,577
3.9975777399995422,2343,1535,576
4.000272620998658,2240,1579,595
4.003022793000127,2115,1554,579
4.0057593820001784,2014,1483,551
4.008455011999104,1954,1450,544
4.011150184000144,1934,1377,503
4.013843938999344,2150,1457,560
4.016535986000235,2384,1535,581
4.019263157999376,2327,1586,592
4.021958497000014,2187,1612,618
4.024652543999764,2063,1510,559
4.027344131998689,1980,1472,559
4.030036303998713,1939,1415,525
4.032731975999923,1936,1378,511
4.035424231999059,2326,1515,577
4.038146278999193,2362,1562,580
4.04085753399886,2239,1600,606
4.0435505810000905,2105,1535,570
4.046249044999058,2004,1485,558
4.04894617500031,1953,1445,544
4.051637971999298,1928,1370,498
4.054332018999048,2224,1483,574
4.057054273998801,2387,1559,586
4.059772945998702,2308,1593,599
4.06246636799915,2163,1598,601
4.065160539999852,2039,1500,551
4.067854503999115,1971,1472,557
4.070546508999541,1936,1404,511
4.07323701399946,2002,1410,534
4.075927060999675,2371,1535,581
4.078618774999995,2361,1581,589
4.081314029999703,2229,1611,613
4.08400528600032,2096,1535,573
4.086700541000027,1996,1488,554
4.089393504000327,1948,1437,537
4.092083759998786,1929,1362,495
4.094777681999403,2286,1508,578
4.097471936998772,2395,1568,580
4.100164941999537,2293,1604,599
4.10286153099878,2149,1585,593
4.105556577998868,2032,1501,560
4.108247541998935,1965,1467,558
4.11093971399896,1934,1394,510
4.113634051998815,2095,1446,553
4.116325473998586,2397,1535,589
4.119019728999774,2359,1591,593
4.121712442998614,2215,1621,625
4.124402364999696,2083,1530,570
4.127096578999044,1987,1487,560
4.129793500998858,1943,1429,535
4.132486130998586,1923,1373,503
4.13518042800024,2333,1520,587
4.137876516999313,2404,1578,591
4.140602313998897,2288,1612,613
4.1432976109990705,2141,1580,589
4.1459923239999625,2021,1501,559
4.148687995999353,1962,1462,551
4.15138079299868,1931,1386,503
4.154074256999593,2186,1473,562
4.1567656789993634,2427,1575,592
4.159458808999261,2359,1610,595
4.162150230999032,2205,1634,624
4.164842027999839,2073,1525,563
4.167533533000096,1984,1483,559
4.1702256640001,1937,1424,529
4.172919794000336,1943,1392,525
4.175611798998943,2396,1535,589
4.178306678999434,2427,1595,591
4.181001267999818,2286,1632,621
4.183692147998954,2115,1555,573
4.186386319999656,2017,1503,564
4.189080451000336,1957,1457,554
4.191776705998564,1926,1380,501
4.1944750450002175,2163,1477,570
4.197170382998593,2288,1525,576
4.19986247199995,2223,1555,590
4.202556684998854,2111,1559,592
4.205250356999386,2016,1469,543
4.207942654000362,1966,1443,544
4.210642367999753,1935,1387,506
4.213344165000308,1983,1394,528
4.216037794998556,2229,1484,561
4.218732633999025,2219,1506,563
4.221426763999261,2128,1535,592
4.22412189500028,2032,1477,555
4.22682019199965,1974,1438,538
4.2295152799997595,1941,1403,524
4.232207118999213,1927,1339,486
4.234901706999153,2207,1471,569
4.237600295999073,2285,1511,569
4.2402930930002185,2199,1535,586
4.24298643200018,2096,1530,577
4.245682937000311,2005,1459,544
4.248374066999531,1961,1436,539
4.251066863998858,1932,1374,501
4.253760744999454,2043,1422,544
4.256454541999119,2246,1489,564
4.259151463000308,2213,1517,571
4.261842844000057,2114,1535,594
4.264537682000082,2030,1463,539
4.267262187999222,1971,1440,540
4.26995348499986,1939,1392,507
4.2726436569992075,1926,1355,499
4.275334328998724,2236,1479,564
4.278027708998707,2272,1511,569
4.280720797998583,2183,1535,586
4.283439802999055,2075,1511,560
4.286134891999609,1993,1456,540
4.288829105000332,1955,1424,534
4.291522235998855,1933,1358,495
4.294217032000233,2138,1445,555
4.296912079000322,2309,1520,574
4.299601167998844,2243,1535,582
4.302293214999736,2133,1577,597
4.3049884289994225,2029,1476,546
4.307678266999574,1968,1453,545
4.3103726059998735,1937,1394,510
4.313065944999835,1946,1377,511
4.315756657999373,2288,1497,575
4.31845137199889,2295,1530,571
4.321147001999634,2187,1569,601
4.323839923999913,2077,1510,563
4.326535845999388,1989,1456,543
4.329229809998651,1951,1425,532
4.3319199819998175,1926,1357,487
4.33462136199887,2192,1473,566
4.337316491999445,2318,1526,576
4.340007663999131,2241,1565,593
4.342703710999558,2123,1567,592
4.345397757999308,2022,1475,550
4.3480888470003265,1967,1455,550
4.350784684998871,1936,1387,507
4.353480566000144,2007,1408,529
4.356173445999957,2307,1508,576
4.358868909999728,2288,1535,576
4.361561289999372,2174,1579,603
4.364253419998931,2065,1504,560
4.366946467000162,1984,1460,548
4.369638805999784,1947,1419,528
4.372329060999618,1927,1347,491
4.375019399998564,2253,1489,576
4.377710737999223,2337,1535,577
4.380401076999988,2243,1579,595
4.3830940409989125,2115,1554,581
4.385791128999699,2016,1482,551
4.3884840099999565,1962,1450,545
4.391178306999791,1933,1382,503
4.393871936999858,2082,1435,550
4.3966370669986645,2304,1519,576
4.399344739000298,2261,1535,579
4.402041744999224,2146,1582,607
4.404738375000306,2038,1485,545
4.407430338998893,1971,1455,547
4.410125802000039,1941,1403,525
4.412818807999429,1929,1362,506
4.4155113130000245,2210,1475,571
4.4182056930003455,2238,1504,565
4.420922822999273,2157,1535,590
4.42364982899926,2059,1495,560
4.4263640839999425,1986,1443,538
4.42905850599891,1950,1415,528
4.431746885999019,1934,1351,489
4.434442682999361,2046,1425,548
4.437138438999682,2137,1462,560
4.439830026998607,2105,1482,567
4.442524033000154,2036,1492,574
4.445219745999566,1984,1410,511
4.447913709998829,1951,1399,511
4.4506113400002505,1926,1359,495
4.453307470999789,1939,1359,509
4.455999058998714,2082,1425,546
4.458692980999331,2082,1439,546
4.461386319999292,2034,1474,571
4.464076449999993,1989,1421,526
4.466768205000335,1955,1391,509
4.469460626998625,1937,1369,499
4.47215392399994,1934,1319,478
4.474844762999055,2063,1411,545
4.477539101999355,2113,1441,550
4.480233689999295,2073,1467,563
4.482930319998559,2017,1471,560
4.485625366998647,1970,1403,511
4.488316622999264,1945,1391,511
4.4910112529996695,1935,1344,491
4.493705674998637,1979,1377,528
4.49639593000029,2102,1435,551
4.499090560999321,2093,1448,557
4.5017843160003395,2032,1484,580
4.504474737999772,1984,1417,511
4.507167325999035,1954,1392,522
4.509859414998573,1936,1362,501
4.512553919999846,1931,1325,485
4.5152753419988585,2074,1424,553
4.517971597999349,2106,1442,547
4.520666561000326,2063,1470,566
4.523357942000075,2002,1451,550
4.526052196999444,1968,1394,511
4.528746326999681,1941,1387,511
4.5314374579993455,1932,1331,485
4.534132087999751,1979,1386,527
4.536827177000305,2033,1421,544
4.539518640000097,2022,1424,545
4.542212436999762,1993,1463,573
4.544908650999787,1962,1381,505
4.547602073000235,1936,1374,507
4.55029557799935,1934,1342,494
4.55299154199929,1930,1328,493
4.55568346399923,2023,1405,547
4.558379344000059,2035,1414,539
4.561070599000232,2002,1446,560
4.563764062999326,1974,1410,527
4.566456401000323,1950,1369,498
4.569148282000242,1937,1360,503
4.571840704000351,1931,1315,474
4.57453200099917,1991,1383,538
4.577227922998645,2023,1405,537
4.579920594998839,2005,1425,550
4.5826142669993715,1973,1449,560
4.585307646999354,1957,1372,498
4.5879993609996745,1941,1367,508
4.5906975739999325,1936,1333,483
4.593391413000063,1945,1344,500
4.596084250999411,2032,1408,542
4.598774422998758,2032,1417,539
4.6014667620002,2002,1454,560
4.604158725998786,1972,1401,525
4.606851147998896,1950,1373,506
4.609550860999661,1935,1355,497
4.612244616999305,1926,1306,470
4.614939580000282,1997,1392,539
4.61763408600018,2017,1408,534
4.620325381998555,2000,1427,550
4.623017845999129,1971,1430,544
4.625710934999006,1950,1368,499
4.628405440000279,1936,1363,507
4.631097236999267,1933,1327,485
4.633792033999271,1956,1357,511
4.636483997999676,2031,1406,535
4.639220044999092,2021,1416,543
4.641930466999838,1991,1455,573
4.644654096999147,1963,1390,511
4.647347435999109,1948,1367,508
4.650042732999282,1935,1344,496
4.652737112999603,1933,1317,486
4.655428826999923,2033,1407,546
4.658121749000202,2047,1419,539
4.660816253999656,2019,1447,560
4.663506925999172,1981,1424,535
4.666201055999409,1955,1377,507
4.668892144998608,1941,1369,507
4.671583817000283,1933,1325,478
4.674275613999271,1978,1375,528
4.676965536000353,2029,1411,541
4.679654540999763,2009,1418,538
4.682347795998794,1984,1457,569
4.685042842998882,1958,1376,498
4.687734682000155,1941,1366,506
4.690428728999905,1936,1339,487
4.693123191998893,1931,1328,491
4.695813905998875,2027,1404,541
4.698507494998921,2031,1410,533
4.701198249998924,2000,1445,561
4.703894588999901,1971,1408,528
4.706590093999694,1949,1367,503
4.709283431999211,1936,1360,502
4.711974895999447,1930,1312,474
4.714679150998563,1997,1391,539
4.71738299000026,2039,1413,538
4.720077244999629,2019,1433,549
4.7227737920002255,1985,1454,558
4.72546888099896,1962,1376,493
4.728160927999852,1939,1370,507
4.730857099999412,1934,1333,482
4.733551938999881,1948,1349,509
4.736245860998679,2053,1411,544
4.738941282999804,2044,1424,543
4.741636912998729,2005,1459,567
4.744328625998605,1970,1401,511
4.747022047999053,1950,1371,503
4.749716594998972,1936,1355,501
4.752406976000202,1930,1307,464
4.7551011059986195,1997,1397,541
4.7577947359986865,2015,1407,535
4.7604852829990705,1999,1427,551
4.763178913999582,1968,1426,545
4.765870751998591,1953,1367,496
4.7685910489999515,1939,1363,503
4.771288428999469,1936,1327,481
4.773981017999176,1966,1362,511
4.776672981999582,2026,1408,546
4.779368903999057,2017,1417,541
4.7820666169991455,1988,1453,560
4.784762580999086,1961,1385,506
4.787455294999745,1941,1365,502
4.790148841999326,1934,1346,494
4.792843679999351,1932,1318,486
4.795536601999629,2005,1397,544
4.798231565999231,2014,1406,533
4.800930445999256,1994,1435,557
4.803622993000317,1967,1410,529
4.806317581998883,1949,1363,497
4.809012878999056,1935,1360,505
4.811705508998784,1935,1316,475
4.814395847999549,1995,1376,528
4.817087727999024,2060,1419,542
4.819779982999535,2039,1434,549
4.822474779999538,1999,1469,570
4.825168076999034,1968,1381,503
4.82786058199963,1942,1373,507
4.830554337999274,1933,1339,491
4.833259342998645,1931,1333,496
4.835953264999262,2027,1407,543
4.838647103999392,2032,1414,536
4.841341317000115,2000,1449,560
4.844086031000188,1970,1407,526
4.846780244999536,1951,1371,503
4.849475625000196,1934,1358,496
4.852166546999797,1929,1309,469
4.854862051999589,2000,1392,540
4.857556098999339,2035,1410,539
4.860246438000104,2015,1434,551
4.862940484999854,1984,1447,553
4.865633072999117,1956,1373,497
4.868325120000009,1942,1368,505
4.871015833999991,1934,1330,483
4.873707298000227,1948,1351,509
4.876399844999469,2030,1408,542
4.879090724998605,2026,1415,539
4.8817815219990734,1994,1453,565
4.884470610999415,1965,1391,507
4.887159365998741,1943,1369,503
4.889853828999549,1936,1353,496
4.892545500999404,1933,1302,476
4.895272423000279,2027,1406,546
4.897967429000346,2047,1418,541
4.900662141999419,2021,1445,558
4.903352272998745,1985,1434,545
4.906048195000039,1955,1378,500
4.9087445749992185,1939,1370,505
4.911435414000152,1932,1328,480
4.91412983599912,1966,1366,526
4.916824923999229,2018,1407,538
4.91951663799955,2010,1414,542
4.922211725999659,1984,1455,567
4.924904606999917,1962,1381,503
4.927597861998947,1937,1364,508
4.930294116998994,1936,1344,495
4.932988247999674,1930,1318,486
4.935681794999255,2030,1405,549
4.9383766329992795,2038,1415,539
4.941071388999262,2007,1444,560
4.943761061000259,1978,1418,531
4.9464557739993325,1949,1371,496
4.949150696000288,1938,1363,504
4.951842034999572,1936,1319,473
4.954536872999597,1987,1377,528
4.957230461999643,2033,1411,541
4.9599236759986525,2015,1428,549
4.962621680999291,1983,1459,567
4.96531622799921,1956,1373,501
4.968006107999827,1939,1365,510
4.970696529999259,1932,1340,490
4.973388159998649,1932,1333,498
4.976078748999498,2031,1406,543
4.978771004000009,2030,1413,537
4.9814648009996745,2000,1449,560
4.984155014999487,1968,1399,526
4.986849811999491,1946,1362,496
4.9895441089993255,1937,1359,497
4.9922360309992655,1929,1312,468
4.994930994998867,2000,1392,538
4.997625624999273,2032,1411,540
5.000317213000017,2011,1431,549
5.0030110939987935,1983,1445,553
5.005754890999015,1957,1371,501
5.008492854998622,1939,1370,509
5.0112115270003414,1935,1328,482
5.0139129489998595,1952,1355,507
5.016636536998703,2023,1407,541
5.019331000999955,2022,1418,538
5.022025464999388,1991,1453,564
5.02472230300009,1964,1389,510
5.027414349999162,1946,1367,503
5.030108188999293,1937,1345,496
5.032799943999635,1930,1311,477
5.035491448999892,2005,1401,543
5.038185204999536,2021,1408,539
5.040877126999476,2000,1435,555
5.043566173999352,1972,1421,534
5.04625851200035,1949,1368,496
5.048951725999359,1939,1362,503
5.051640772999235,1933,1321,475
5.054335819999324,1972,1371,523
5.057033617000343,2037,1411,534
5.059725330000219,2026,1424,539
5.062420210999335,1991,1459,566
5.065128798998558,1965,1381,500
5.067848345999664,1947,1373,505
5.070540351998716,1935,1342,490
5.07323060699855,1934,1328,495
5.075920736999251,2039,1408,546
5.078611200999148,2055,1423,543
5.081304956000167,2023,1455,560
5.08399671099869,1984,1420,528
5.086692425000365,1954,1377,505
5.0893907219997345,1938,1359,499
5.09208322700033,1934,1319,474
5.09477727400008,2001,1391,537
5.097469737998836,2043,1417,540
5.100161492999177,2021,1434,551
5.102854206999837,1987,1457,562
5.105550336998931,1966,1377,505
5.108243134000077,1942,1373,507
5.110934472999361,1936,1335,489
5.113627228000041,1943,1345,503
5.116317942000023,2063,1414,546
5.119011654998758,2066,1427,546
5.121706951998931,2018,1465,569
5.12440312400031,1982,1410,528
5.127098129998558,1952,1376,509
5.1297920099987095,1936,1360,501
5.132482598999559,1935,1314,470
5.135175686998991,2029,1408,546
5.137870066999312,2070,1427,547
5.140599447999193,2035,1451,560
5.1432990779994725,1998,1454,551
5.145994499998778,1966,1381,499
5.148688921999565,1941,1378,510
5.151382594000097,1935,1334,484
5.154079848998663,1967,1367,511
5.156772312999237,2062,1421,541
5.159462067998902,2051,1429,543
5.162157156999456,2007,1466,567
5.164851620998888,1971,1397,507
5.1675422089992935,1947,1376,507
5.17023450600027,1937,1353,496
5.17292480299875,1931,1318,481
5.175613682999028,2020,1407,547
5.178303521999624,2035,1414,541
5.180994901998929,2011,1444,560
5.183686823998869,1978,1424,538
5.186382705000142,1953,1374,500
5.189078667999638,1937,1365,506
5.191770256999007,1936,1315,471
5.194466053999349,2000,1385,528
5.197158351000326,2076,1424,547
5.1998511889996735,2055,1443,550
5.202543653000248,2011,1476,576
5.205238366999765,1971,1392,503
5.207928914000149,1949,1378,507
5.210620126999856,1934,1350,494
5.2133163409998815,1935,1330,494
5.216009595998912,2065,1421,547
5.21870676799881,2075,1429,546
5.221403064999322,2032,1465,565
5.224094819999664,1986,1424,533
5.226789033999012,1957,1383,505
5.229483205999713,1937,1368,501
5.232174877999569,1931,1321,474
5.234869466999953,2000,1392,539
5.237563971999407,2063,1423,542
5.240289518998907,2032,1442,557
5.242994315998658,1997,1462,564
5.245691029998852,1968,1383,503
5.248384118000104,1945,1376,507
5.251081206999515,1935,1339,485
5.2537775869986945,1941,1349,505
5.2564687590001995,2041,1410,543
5.259162847998596,2032,1419,539
5.261857602999953,2000,1456,562
5.264550607998899,1969,1397,511
5.267272488999879,1952,1373,501
5.269966410998677,1937,1357,496
5.272680207999656,1934,1307,465
5.275374254999406,2032,1408,548
5.278066176999346,2086,1426,543
5.280757556998651,2057,1456,559
5.283449687000029,2001,1456,543
5.286143942999843,1968,1390,502
5.288838323000164,1943,1379,508
5.291530327998771,1936,1333,479
5.2942253749988595,1969,1365,511
5.296920504999434,2064,1424,546
5.299612969000009,2042,1437,548
5.30230784899868,2003,1469,570
5.3050028959987685,1971,1395,507
5.307695026998772,1949,1379,510
5.310390156999347,1936,1353,496
5.31308841200007,1931,1323,486
5.315780083999925,2011,1406,547
5.318471630998829,2022,1411,535
5.32116659500025,2000,1439,557
5.323859017000359,1971,1415,529
5.326549979999982,1950,1371,503
5.329245486000218,1936,1361,503
5.33193774099891,1935,1319,477
5.33463207999921,1984,1377,527
5.337324751999404,2041,1411,541
5.340015756999492,2023,1427,546
5.342708178999601,1993,1467,576
5.3454041839995625,1963,1380,503
5.348097355999926,1945,1374,510
5.350792527999147,1936,1344,495
5.353487032998601,1933,1330,496
5.356177538998963,2041,1409,545
5.358869169000172,2047,1421,539
5.361564673999965,2015,1455,562
5.364256929999101,1979,1412,528
5.366951142999824,1961,1376,505
5.369642189998558,1939,1362,499
5.372333569999682,1935,1314,471
5.375026866999178,1993,1391,533
5.377721622999161,2032,1411,534
5.380415002999143,2014,1433,545
5.383107591998851,1985,1451,560
5.3858016389986005,1954,1373,498
5.388488435999534,1937,1366,506
5.391189148998819,1925,1330,486
5.393886195999585,1935,1344,504
5.39660832699883,2018,1395,535
5.399302539999553,2016,1413,537
5.401998919998732,1994,1446,563
5.40654197099866,1967,1392,523
5.409244642998601,1936,1354,505
5.411940939999113,1931,1311,474
5.414638361999096,1985,1370,526
5.417333033999967,2057,1412,541
5.420027330999801,2038,1429,545
5.422721835999255,2000,1470,573
5.425417799999195,1968,1382,499
5.42810997199922,1952,1375,507
5.430805852000049,1936,1344,493
5.433499982000285,1936,1330,495
5.436190696000267,2032,1408,546
5.438886034999086,2036,1418,541
5.441616914999031,2006,1453,561
5.444314503998612,1979,1410,526
5.447011300999293,1950,1374,501
5.449712722998811,1937,1361,498
5.452406520000295,1932,1312,466
5.455100608000066,2000,1390,535
5.457795321999583,2032,1415,535
5.4604882019993966,2015,1430,550
5.463177290999738,1984,1449,557
5.465878212999087,1958,1375,496
5.4686031349992845,1943,1367,506
5.4713002649987175,1933,1337,482
5.4739938949987845,1947,1349,505
5.476686358999359,2066,1419,549
5.479379780999807,2071,1431,547
5.482073369999853,2025,1471,568
5.484765457998947,1984,1411,527
5.487457796998569,1958,1382,501
5.49015034399963,1939,1360,498
5.492853932999424,1931,1311,474
5.495547645999977,2009,1403,545
5.4982434430003195,2038,1418,541
5.500938781999139,2009,1441,559
5.503634119999333,1979,1433,546
5.506332041999485,1957,1375,502
5.509028047999891,1940,1366,507
5.511722678000297,1936,1327,483
5.514418974998989,1969,1367,528
5.517114604999733,2031,1410,543
5.519806610998785,2011,1420,545
5.522502865998831,1984,1454,567
5.525196579999829,1958,1381,503
5.5278906679996,1947,1367,506
5.530586756998673,1935,1344,494
5.533281928999713,1933,1319,486
5.535976183999082,2041,1410,546
5.538672773000144,2062,1423,544
5.541369152999323,2026,1456,560
5.544061200000215,1985,1425,530
5.546756371999436,1957,1377,505
5.549452502000349,1937,1367,498
5.552143674000035,1936,1323,475
5.554840304999743,1987,1383,528
5.557535392999853,2033,1414,541
5.560227939999095,2023,1430,547
5.562922069999331,1987,1466,564
5.565615658999377,1959,1378,499
5.568308788999275,1943,1370,503
5.571013627999491,1935,1339,490
5.573711174998607,1936,1335,496
5.576403679999203,2039,1408,542
5.579095143999439,2045,1423,539
5.581785690999823,2010,1456,563
5.584477320999213,1975,1408,511
5.587171159999343,1951,1374,502
5.589864872999897,1939,1360,499
5.592558211999858,1931,1311,469
5.595276926000224,2004,1395,535
5.597973472999001,2057,1420,542
5.600669269999344,2031,1442,553
5.603363816999263,1995,1455,550
5.606058571998801,1966,1381,499
5.608759036000265,1943,1375,507
5.6114534989992535,1935,1334,482
5.614145879999342,1955,1360,511
5.6168405520002125,2054,1417,546
5.6195310989987775,2046,1425,543
5.622224687000198,2003,1459,570
5.624917066999842,1972,1405,511
5.627609572999063,1948,1375,509
5.630299119999108,1937,1355,496
5.63299595799981,1934,1310,474
5.635687546999179,2010,1403,546
5.638382635999733,2032,1413,539
5.641076015999715,2007,1439,559
5.643809770999724,1975,1427,542
5.646515151998756,1953,1373,498
5.6492107819995,1936,1364,506
5.651902536999842,1935,1323,477
5.654595168000014,1968,1374,528
5.65728921399932,2039,1411,543
5.659980635999091,2027,1424,543
5.66267576700011,1991,1465,572
5.665371604998654,1965,1386,503
5.668063985998742,1945,1370,505
5.6707588659992325,1936,1344,492
5.67345145499894,1931,1324,491
5.676141877000191,2032,1409,550
5.678833214999031,2042,1419,544
5.681523178998759,2013,1447,560
5.68421572599982,1977,1418,529
5.68690735599921,1953,1370,501
5.689604402999976,1934,1363,507
5.692296199998964,1935,1315,475
5.694992079999793,1999,1386,532
5.697687418998612,2041,1418,545
5.700379382999017,2022,1432,547
5.703071013000226,1990,1462,562
5.705785059999471,1957,1364,489
5.708487523999793,1937,1361,496
5.711183945999437,1934,1331,474
5.713879950999399,1936,1334,491
5.7166102479986876,2106,1424,542
5.7193084609989455,2112,1442,541
5.722002799999245,2060,1479,568
5.724698096999418,1999,1423,523
5.727392226999655,1962,1391,506
5.730090607999955,1937,1367,496
5.732783654999366,1927,1315,465
5.735471826999856,2035,1410,540
5.738166207000177,2096,1436,540
5.740858253999249,2064,1457,555
5.743565593000312,2007,1463,548
5.746294389999093,1968,1391,498
5.74899681199895,1941,1378,507
5.751690941999186,1930,1336,478
5.7543862809998245,1964,1367,509
5.757082369000273,2073,1424,539
5.759776623999642,2063,1435,538
5.762474712999392,2015,1472,565
5.765168301999438,1972,1398,506
5.767860681999082,1946,1376,501
5.770556145998853,1931,1349,487
5.773247733999597,1925,1314,478
5.775938155999029,2034,1408,544
5.778632994999498,2064,1423,537
5.781330583999079,2028,1452,558
5.784023713998977,1986,1430,531
5.786716135999086,1952,1376,495
5.789407016000041,1935,1367,496
5.792097604999071,1927,1321,465
5.794789067998863,1991,1379,511
5.797484239999903,2079,1424,539
5.8001746619993355,2058,1439,544
5.802869000999635,2006,1473,567
5.805567714998688,1968,1389,496
5.808259845000066,1939,1375,501
5.810954224998568,1929,1343,483
5.81364923000001,1923,1327,487
5.816340444000161,2078,1418,541
5.819870075998551,2096,1437,541
5.822573997998916,2053,1472,563
5.825275294999301,1983,1408,505
5.8279705089989875,1947,1383,502
5.830668096999943,1931,1351,485
5.833363185998678,1920,1322,476
5.8360538159995485,2043,1411,539
5.838744613000017,2070,1426,533
5.841446034999535,2029,1455,555
5.844177581999247,1984,1430,530
5.846891753999444,1953,1378,496
5.849587884998982,1927,1365,497
5.852280139999493,1922,1317,465
5.854975686999751,1997,1377,521
5.857672441999966,2075,1424,537
5.860365946999082,2047,1443,544
5.863060035999297,2000,1473,564
5.8658143329994346,1965,1384,495
5.868523712999377,1936,1374,496
5.871371885999906,1924,1339,479
5.874139432999073,1926,1338,496
5.876831980000134,2061,1409,539
5.879520276999756,2053,1421,531
5.8822098649998225,2010,1456,559
5.884897120999085,1968,1399,509
5.887584333999257,1936,1366,496
5.890271922999091,1929,1348,491
5.892964302998735,1922,1301,459
5.895653349998611,2025,1401,535
5.89834181399965,2063,1417,531
5.901028276999568,2027,1443,546
5.903720115999022,1986,1441,539
5.906408079999892,1953,1375,491
5.909102334999261,1933,1367,495
5.911793881999984,1920,1326,471
5.914481428999352,1966,1360,508
5.917168934000074,2064,1417,541
5.919856605998575,2047,1427,541
5.922546194999086,2005,1465,565
5.925235574999533,1967,1394,500
5.927922789000149,1937,1370,498
5.93061737700009,1923,1344,486
5.933312298999226,1920,1306,473
5.936000387999229,2039,1407,538
5.938689851000163,2067,1424,534
5.941378522999003,2029,1451,554
5.944068778999281,1983,1427,531
5.94676011699994,1950,1376,496
5.949450747999435,1931,1365,496
5.952140335999502,1920,1321,466
5.954832632998659,1990,1376,511
5.957523596998726,2091,1424,538
5.960210893999829,2067,1442,545
5.9629003159989225,2015,1478,570
5.965599821000069,1957,1392,498
5.968288242998824,1939,1375,501
5.970977414999652,1923,1343,485
5.973665337000057,1919,1322,483
5.9763526339993405,2062,1413,542
5.979042388999005,2074,1425,535
5.981729060998987,2029,1457,558
5.984414565999032,1981,1424,528
5.9871026969995,1947,1373,496
5.98979036899982,1927,1361,496
5.992481956998745,1919,1314,466
5.9951747539998905,2017,1390,528
5.997864175998984,2096,1430,538
6.000549139998839,2064,1451,546
6.003289853999377,2006,1475,564
6.006039025998689,1962,1390,496
6.008758863999901,1936,1376,501
6.011447953000243,1920,1335,472
6.014136916999632,1930,1344,498
6.016827671999636,2062,1414,541
6.01951792699947,2061,1423,531
6.022206015999473,2011,1459,559
6.024893437999708,1968,1405,511
6.027578942999753,1937,1369,496
6.030268906999481,1923,1350,492
6.032956662000288,1918,1299,459
6.035643708999487,2009,1393,534
6.038331963998644,2047,1411,529
6.041019927999514,2018,1436,545
6.043711890999475,1978,1439,545
6.046434354999292,1946,1371,494
6.049130401999719,1930,1363,496
6.051820823999151,1920,1323,471
6.05450928800019,1955,1350,506
6.057198835000236,2070,1414,534
6.059887131999858,2059,1427,536
6.062576886999523,2006,1463,562
6.065264558999843,1967,1395,502
6.067951605999042,1937,1370,498
6.070641569000145,1922,1344,487
6.073333324999112,1915,1306,469
6.076033704999645,2013,1397,535
6.078730919000009,2035,1410,530
6.081417423998573,2006,1438,550
6.084105095998893,1970,1421,529
6.0867921429999114,1945,1366,491
6.089479897998899,1927,1360,494
6.092172278000362,1920,1315,464
6.094865074999689,1982,1365,511
6.0975552889995015,2068,1415,534
6.100243585999124,2046,1433,539
6.102938590998747,2000,1469,567
6.105634596999153,1954,1383,496
6.108324143999198,1926,1363,497
6.111012690998905,1911,1331,480
6.11370569599967,1904,1310,474
6.116395617998933,2029,1398,530
6.119084247999126,2043,1410,527
6.1217742529988755,2000,1443,547
6.124460966999322,1968,1409,511
6.127148888999727,1937,1362,486
6.129837311000301,1922,1354,489
6.132523190999564,1915,1302,461
6.13526569699934,2008,1380,522
6.137957201999598,2093,1426,532
6.140656790999856,2063,1445,544
6.1433515879998595,2002,1471,560
6.146047842999906,1963,1387,494
6.148737389999951,1935,1371,496
6.151425144998939,1920,1333,478
6.154115524999725,1920,1334,490
6.156804780999664,2070,1414,534
6.159492410999519,2073,1430,531
6.162180665998676,2021,1459,560
6.164869254998848,1975,1408,511
6.167555635000099,1939,1372,495
6.17024838999896,1920,1354,488
6.172943936999218,1911,1302,459
6.175638442999116,2021,1395,529
6.1783334060000925,2067,1421,533
6.181022827999186,2032,1442,548
6.183710541999972,1984,1449,543
6.186398296998959,1949,1374,491
6.189085302999956,1926,1363,496
6.191770348999853,1915,1327,469
6.1944660209992435,1937,1346,497
6.197158359998866,2037,1407,533
6.199846864999927,2032,1416,530
6.202534995998576,1994,1450,557
6.205224125998939,1958,1391,501
6.207915380999111,1933,1360,494
6.21061151199865,1917,1342,485
6.213310391998675,1910,1295,462
6.215999729998657,2021,1395,530
6.218687193999358,2053,1412,529
6.221378240999911,2017,1438,544
6.2240685380002105,1973,1429,531
6.226758709999558,1939,1367,492
6.229447423998863,1924,1360,491
6.232135428999754,1914,1315,465
6.23482389200035,1959,1360,506
6.237513730999126,2035,1402,528
6.240204944999277,2025,1418,531
6.242902492000212,1985,1454,559
6.245596913999179,1942,1375,496
6.24832816900016,1927,1360,496
6.2510220909989584,1918,1331,479
6.2537141800003155,1911,1310,474
6.256402559998605,2047,1405,534
6.259093982000195,2065,1419,529
6.261782820998633,2023,1450,555
6.264470950998657,1974,1419,528
6.267160038998554,1939,1370,494
6.269849169999361,1923,1357,493
6.272540174999449,1911,1307,464
6.27528476399857,2000,1379,526
6.277977310999631,2090,1424,541
6.28066648299864,2064,1443,546
6.283349904999341,2002,1472,561
6.286039327000253,1959,1386,496
6.28872941499867,1931,1371,498
6.291417962000196,1915,1333,477
6.294110966999142,1917,1328,494
6.296801888998743,2094,1421,540
6.299491685998873,2096,1436,535
6.302181274999384,2037,1470,560
6.304873654999028,1983,1420,511
6.307562493999285,1942,1379,496
6.310251707998759,1921,1360,494
6.312939879999249,1912,1305,464
6.315626550998786,2027,1395,531
6.3183131400001,2085,1425,534
6.321000644999003,2052,1451,549
6.323686900999746,1997,1461,555
6.326375863998692,1952,1379,496
6.329063244998906,1926,1370,497
6.331772624998848,1911,1328,471
6.334485297000356,1926,1344,496
6.3371865110002545,2063,1424,549
6.33988184899863,2054,1435,546
6.342579812999247,2006,1466,572
6.3452760679992934,1968,1404,522
6.347969656999339,1936,1373,505
6.350662036998983,1921,1351,496
6.353359834000003,1914,1298,476
6.356052006000027,2012,1397,545
6.358746386000348,2035,1410,538
6.361441807999654,2007,1437,546
6.3641353549992346,1969,1425,539
6.366829485999915,1942,1366,498
6.369527408000067,1923,1360,501
6.372223287999077,1919,1318,476
6.374919209998552,1964,1360,511
6.37761317299919,2046,1413,545
6.380306219998602,2034,1424,541
6.383003225999346,1994,1457,571
6.38569589799954,1958,1383,503
6.388386652999543,1935,1363,506
6.3910806579988275,1920,1338,493
6.3937757889998466,1916,1312,482
6.396467294000104,2002,1392,542
6.399160924000171,2014,1403,534
6.401858096000069,1989,1431,555
6.40455164299965,1962,1404,528
6.407343398999728,1936,1360,498
6.410039903999859,1923,1350,499
6.412730908999947,1918,1299,473
6.415421165000225,1989,1373,528
6.418113628000356,2044,1408,541
6.420822132999092,2019,1421,541
6.423526638998737,1983,1452,560
6.426229269000032,1946,1371,497
6.428927315999317,1931,1360,501
6.431643488000191,1919,1328,483
6.434356992998801,1922,1333,497
6.437052289998974,2063,1411,544
6.439744129000246,2061,1424,540
6.44243730099879,2013,1457,560
6.4451333899996825,1971,1406,524
6.447824852999474,1938,1370,503
6.450517441999182,1923,1349,499
6.4532111560001795,1914,1302,470
6.455906035998851,2016,1398,538
6.458598540999446,2055,1418,541
6.46129467100036,2026,1441,559
6.463989301999391,1984,1442,549
6.46668863999912,1951,1374,500
6.469382436998785,1929,1365,506
6.472074358998725,1919,1323,478
6.474766780998834,1954,1351,511
6.4774622449986055,2043,1408,537
6.48015470899918,2033,1422,542
6.482845671998803,1999,1456,564
6.485535885998615,1958,1387,505
6.488226682999084,1936,1365,501
6.490918437999426,1925,1344,493
6.493609692999598,1917,1307,480
6.4963004069995804,2017,1397,545
6.498993745999542,2033,1409,538
6.501688000998911,2003,1440,559
6.5043787979993795,1970,1421,533
6.507074137000018,1941,1365,498
6.509768517000339,1930,1359,503
6.51245752199975,1920,1314,471
6.515151610999965,1961,1361,525
6.5178479489986785,2012,1399,540
6.520538662998661,2000,1409,537
6.523268376999113,1970,1446,560
6.5259621320001315,1947,1369,498
6.528659053999945,1929,1360,503
6.531352684000012,1921,1330,489
6.534045897999022,1919,1316,486
6.536739736999152,2023,1398,541
6.539430158998584,2032,1408,528
6.54212370499954,2000,1441,559
6.5448185019995435,1965,1405,528
6.547508423998806,1941,1360,499
6.550203179998789,1925,1353,500
6.552896351999152,1922,1307,470
6.555589356999917,1994,1381,538
6.558283278998715,2055,1411,542
6.560982700999375,2022,1429,549
6.5636763729999075,1971,1444,549
6.566371419999996,1952,1375,497
6.569068299999344,1936,1365,505
6.571758763999242,1925,1330,485
6.574454018998949,1929,1339,502
6.577148357999249,2054,1409,546
6.57984090500031,2053,1423,545
6.582532409998748,2006,1456,570
6.585224999000275,1969,1402,524
6.587915420999707,1941,1368,505
6.590606800999012,1925,1354,496
6.593297347999396,1922,1301,466
6.595989685998575,2009,1394,541
6.598684857999615,2044,1415,541
6.601378530000147,2015,1439,554
6.604070411000066,1981,1439,549
6.606766123999478,1949,1373,499
6.6094604629997775,1934,1364,501
6.61215250999885,1927,1325,479
6.614846181999383,1955,1356,511
6.617539770999429,2047,1410,543
6.620230151000214,2034,1423,542
6.622925155999837,1999,1459,567
6.62562470299963,1962,1386,501
6.628316416999951,1938,1370,503
6.6310113389990875,1927,1345,495
6.6337046769986046,1921,1308,479
6.636394973998904,2016,1398,550
6.639085979999436,2032,1410,541
6.641781526999694,2001,1440,557
6.644472031999612,1968,1422,531
6.64716486999896,1945,1367,499
6.649859708999429,1929,1360,502
6.652550213999348,1920,1314,477
6.655266802999904,1979,1369,527
6.657962932998998,2043,1411,539
6.660656354999446,2026,1424,546
6.663346568999259,1986,1462,572
6.666040033000172,1954,1379,499
6.66873395499897,1935,1365,508
6.671423626999967,1924,1335,491
6.674117757000204,1920,1321,493
6.6768111789988325,2004,1397,541
6.6795023510003375,2014,1395,539
6.6821915229993465,1989,1435,560
6.6848820699997304,1962,1402,527
6.687574949999544,1936,1360,499
6.690267414000118,1927,1354,497
6.692958918998556,1923,1307,466
6.695649923998644,2018,1390,538
6.6983455549998325,2077,1424,544
6.701038975999836,2047,1443,554
6.703729232000114,2000,1463,563
6.706422778999695,1964,1383,498
6.709116908999931,1936,1374,509
6.711805455999638,1925,1337,487
6.714497627999663,1936,1337,503
6.717208091999055,2077,1419,547
6.7199074719992495,2078,1433,545
6.722605393999402,2021,1470,569
6.7252988159998495,1979,1413,526
6.7279886129999795,1947,1375,502
6.730683117999433,1932,1361,501
6.733375956999225,1923,1310,473
6.736070544999166,2032,1408,549
6.738765176000015,2085,1429,542
6.741458763999617,2051,1455,557
6.744151310998859,1997,1455,551
6.746844024999518,1960,1385,502
6.749540196999078,1936,1373,510
6.752233785999124,1926,1330,483
6.754931082999974,1967,1366,511
6.7576397550001275,2076,1424,549
6.7603365929990105,2064,1437,546
6.763031098000283,2017,1472,571
6.765726853998785,1974,1403,509
6.768418984000164,1945,1379,507
6.771112864000315,1931,1353,496
6.773808078000002,1920,1316,480
6.776499583000259,2065,1413,551
6.779208296999059,2095,1435,547
6.7819049270001415,2047,1463,562
6.78462722400036,1985,1441,541
6.787320980000004,1959,1388,503
6.790012609999394,1937,1374,503
6.792705781999757,1926,1327,477
6.795397411999147,2000,1384,530
6.79809029199896,2081,1427,547
6.800783963999493,2063,1446,553
6.803473635998671,2010,1479,576
6.806166432999817,1973,1393,507
6.808859146998657,1949,1382,511
6.81155365199993,1933,1345,495
6.814246615998854,1927,1329,496
6.8169439129997045,2039,1410,547
6.819636542999433,2039,1422,541
6.822332756999458,2003,1452,564
6.825026261998573,1968,1408,528
6.827716476000205,1938,1367,506
6.830411772998559,1922,1350,495
6.833105153000361,1922,1310,467
6.835797992000153,2032,1399,541
6.838490621999881,2098,1431,546
6.8411851689998,2068,1456,558
6.843879007999931,2014,1473,563
6.84657509599856,1967,1392,503
6.849271518000023,1943,1379,510
6.851965564999773,1927,1343,486
6.8546616120002,1939,1354,509
6.857356283999252,2079,1424,546
6.860046413999953,2076,1435,546
6.86273929500021,2029,1472,572
6.8654340079992835,1982,1415,525
6.868126221999773,1950,1382,511
6.870820435999121,1934,1360,501
6.873514482998871,1929,1308,468
6.8762052379988745,2058,1413,548
6.87890015999983,2104,1437,546
6.881594414999199,2061,1465,560
6.88428796199878,2003,1460,557
6.886980216999291,1966,1392,508
6.889671472999908,1937,1382,509
6.892360727999403,1927,1334,481
6.895052399999258,1968,1369,511
6.897746822000045,2075,1425,543
6.900436660000196,2062,1438,542
6.903131790999396,2015,1475,571
6.9058273379996535,1971,1403,511
6.908518135000122,1943,1376,506
6.911244639999495,1935,1354,494
6.913942478999161,1923,1317,480
6.916646067000329,2053,1414,548
6.919338947998767,2082,1429,542
6.92203345300004,2037,1459,561
6.924723457999789,1989,1431,538
6.92741700499937,1957,1382,506
6.930111968998972,1936,1371,509
6.9328052239998215,1926,1318,466
6.9354968539992115,1993,1378,530
6.93818765099968,2067,1424,549
6.940881864999028,2045,1440,553
6.943575411998609,2000,1474,577
6.946270708998782,1967,1388,503
6.94896363099906,1938,1375,505
6.951655135999317,1933,1344,490
6.954351307998877,1924,1328,496
6.957046104998881,2056,1411,544
6.95973427699937,2063,1424,541
6.9624282409986336,2021,1456,560
6.965121037999779,1982,1418,528
6.967812750999656,1951,1376,501
6.970507131998602,1936,1359,500
6.973200428999917,1925,1312,471
6.975894850998884,2017,1394,538
6.97859139799948,2067,1426,544
6.98128331999942,2047,1445,554
6.983975408000333,1999,1461,560
6.98666899699856,1949,1373,494
6.989360669000234,1936,1375,508
6.992050590999497,1929,1335,487
6.9947424290003255,1939,1350,501
6.997437475998595,2083,1424,543
7.000121232000311,2081,1438,546
7.0028122369985795,2032,1472,571
7.005506575998879,1982,1413,527
7.008251163999375,1950,1382,506
7.010984253000061,1936,1363,498
7.013678716999493,1929,1310,467
7.016368971999327,2039,1410,550
7.019062560999373,2080,1429,542
7.021756565998658,2037,1456,560
7.024449612999888,1996,1447,543
7.02714215999913,1963,1386,502
7.029835372999514,1938,1376,503
7.0325264200000674,1932,1328,477
7.035261383998659,1972,1366,511
7.037957305999953,2075,1424,545
7.0406526859987935,2064,1439,546
7.0433424829989235,2017,1479,575
7.046037404999879,1970,1396,507
7.048731118999058,1949,1379,511
7.051421373998892,1936,1351,491
7.054114754999318,1929,1325,486
7.056808176999766,2068,1421,551
7.059499306998987,2087,1427,547
7.062194269999964,2039,1464,565
7.064886858999671,1991,1434,537
7.06757736399959,1954,1387,507
7.070269744999678,1938,1371,502
7.072965374998603,1926,1324,478
7.07565687999886,2004,1388,531
7.07835092699861,2085,1428,544
7.081045015998825,2063,1449,556
7.083765520999805,2010,1483,574
7.086486651998712,1968,1395,501
7.089180781998948,1946,1383,509
7.091872412000157,1935,1345,490
7.094563458998891,1929,1339,496
7.097255048000079,2057,1417,544
7.099946303000252,2063,1425,539
7.102639307999198,2015,1463,566
7.105337105000217,1975,1411,526
7.108030444000178,1952,1377,502
7.110725198999717,1935,1360,498
7.113417204998768,1931,1312,470
7.116107501999068,2035,1405,546
7.118801798000277,2096,1434,549
7.121496095000111,2064,1456,559
7.124187183999311,2002,1467,561
7.126878981000118,1968,1392,503
7.129571569999825,1939,1383,511
7.132265616999575,1930,1339,483
7.1349595800002135,1965,1360,510
7.137656502000027,2115,1429,544
7.140368132999356,2109,1456,551
7.14307309600008,2055,1490,576
7.145771227000296,1990,1424,526
7.14846493999903,1959,1392,509
7.151159903998632,1934,1366,501
7.153856533999715,1927,1319,481
7.156550788999084,2047,1419,551
7.15928154500034,2083,1436,545
7.1619772169997304,2042,1461,561
7.164673014000073,1997,1450,544
7.167367018999357,1961,1389,501
7.170063440999002,1940,1377,508
7.172757737998836,1927,1329,482
7.175449827000193,1991,1381,527
7.178142249000302,2089,1430,547
7.1808369619993755,2071,1446,550
7.183528842999294,2017,1483,576
7.186219930999869,1973,1397,511
7.188911852999809,1949,1383,511
7.191602107999643,1929,1353,496
7.194295946999773,1927,1328,489
7.1969865359988034,2070,1420,550
7.199681041000076,2087,1439,547
7.202379837999615,2045,1469,565
7.205075259998921,1993,1435,535
7.2077665149990935,1962,1386,507
7.210460229000091,1936,1371,507
7.2131546509990585,1930,1326,479
7.215846989000056,2020,1395,537
7.218540244999531,2098,1437,551
7.2212341249996825,2073,1457,558
7.223925796999538,2017,1481,571
7.226622218999182,1972,1395,509
7.2293177239989745,1948,1385,511
7.2320108549993165,1933,1346,491
7.23470669299968,1936,1344,503
7.23740236499907,2070,1423,555
7.240094828999645,2071,1427,542
7.242790791999141,2031,1471,572
7.2454864230003295,1984,1419,528
7.248177344999931,1953,1380,505
7.250872224998602,1937,1362,499
7.2536093139988225,1929,1313,468
7.2563148609988275,2043,1409,545
7.259011657999508,2094,1437,544
7.261706080000295,2062,1461,560
7.264397876999283,2003,1460,558
7.2670940489988425,1968,1389,507
7.269789886999206,1943,1382,508
7.272481600999527,1935,1334,485
7.27517427299972,1965,1364,511
7.277870570000232,2075,1424,549
7.280588992000048,2063,1437,543
7.283283621998635,2018,1474,573
7.285976293998829,1975,1405,511
7.288670257999911,1952,1382,511
7.291363430000274,1936,1356,496
7.294054726999093,1931,1317,481
7.296746981999604,2066,1423,549
7.29943786199874,2098,1439,544
7.302132367998638,2063,1467,565
7.304826955998578,2003,1447,544
7.307520544998624,1963,1388,511
7.310214174998691,1936,1378,511
7.312908346999393,1930,1328,480
7.3155985189987405,1984,1383,528
7.31829306599866,2069,1424,545
7.320986695998727,2056,1440,547
7.323679993000042,2007,1476,576
7.326374790000045,1969,1392,510
7.3290730039989285,1948,1378,511
7.33176688399908,1933,1346,495
7.3344613059998665,1931,1330,495
7.337156644998686,2053,1414,549
7.339846566999768,2061,1424,544
7.342537196998819,2017,1451,560
7.345230951999838,1983,1424,530
7.3479203329989105,1953,1378,506
7.35061437999866,1936,1365,503
7.353308677000314,1933,1317,470
7.355998764998731,2014,1392,533
7.358693186999517,2082,1426,546
7.36139090100005,2057,1450,556
7.3640844889996515,2003,1473,566
7.366780869999275,1967,1392,507
7.3694744579988765,1947,1379,509
7.3721654639994085,1933,1341,490
7.374856761000046,1940,1350,506
7.377552308000304,2090,1424,549
7.3802438549992075,2084,1439,546
7.38293694299864,2032,1473,571
7.385629532000166,1984,1419,529
7.388320244999704,1956,1385,509
7.391011791998608,1938,1361,505
7.393705672999204,1930,1313,470
7.396397844999228,2026,1408,545
7.399091307999697,2071,1427,547
7.401785521999045,2036,1455,560
7.404475944000296,1997,1455,555
7.40717257399956,1962,1388,503
7.409865745999923,1939,1377,511
7.412555167999017,1932,1332,482
7.415327381999305,1961,1363,511
7.418022595998991,2063,1422,549
7.420718642999418,2047,1432,548
7.423411648000183,2005,1470,571
7.426107694998791,1970,1396,510
7.428801949999979,1946,1376,508
7.431493455000236,1935,1347,494
7.43418712699895,1930,1317,482
7.436879298998974,2043,1411,549
7.439570304999506,2062,1424,538
7.442265392999616,2030,1455,560
7.444960856999387,1984,1424,533
7.447652320999623,1958,1381,505
7.450346200999775,1937,1370,508
7.4530396230002225,1931,1326,477
7.455757294999785,2002,1387,528
7.458464800000002,2093,1434,541
7.461159221998969,2071,1453,554
7.463851893999163,2017,1486,578
7.46654660799868,1974,1393,511
7.4692406129997835,1951,1382,511
7.471931951999068,1933,1347,495
7.4746257070000865,1926,1332,496
7.477319420999265,2019,1407,544
7.4800101759992685,2031,1414,539
7.482703347999632,1999,1446,559
7.4853961859989795,1968,1407,525
7.488087816998814,1953,1370,501
7.490779196999938,1936,1360,500
7.493470243998672,1930,1312,470
7.496162415998697,2018,1394,539
7.498854379999102,2074,1425,543
7.501548259999254,2047,1449,555
7.504241515000103,2001,1469,561
7.506937395999557,1969,1388,498
7.509632567000153,1948,1379,510
7.512324155999522,1936,1342,490
7.515017660998637,1943,1350,504
7.517712749999191,2052,1419,543
7.520407838999745,2045,1424,539
7.523103718998755,2014,1463,565
7.525799390999964,1974,1407,522
7.528492645998995,1947,1370,502
7.531197401998725,1926,1357,496
7.533893198999067,1919,1303,467
7.536614620999899,2018,1403,543
7.539306708998993,2061,1418,537
7.542001005998827,2030,1445,556
7.544695677999698,1986,1441,546
7.547386016998644,1958,1373,496
7.550080729999536,1942,1372,510
7.552775276999455,1935,1331,485
7.555467615999078,1981,1375,527
7.558164037998722,2092,1429,550
7.560857292999572,2074,1446,550
7.563548131998687,2027,1482,576
7.5662417209987325,1981,1408,511
7.568935725999836,1952,1387,511
7.571626813998591,1936,1357,496
7.574321111000245,1933,1325,487
7.577014157999656,2055,1418,550
7.579706996999448,2080,1430,545
7.582400376999431,2032,1458,561
7.5850956329995824,1989,1435,542
7.587786680000136,1962,1388,506
7.590477435000139,1939,1373,506
7.593167439999888,1934,1328,480
7.595858194999892,2006,1389,531
7.598560575999727,2096,1435,547
7.601256788999308,2071,1454,559
7.603948877998846,2018,1487,583
7.606643799999802,1977,1396,507
7.609339888998875,1950,1383,509
7.6120313109986455,1933,1350,495
7.614725732999432,1930,1335,496
7.617422237999563,2068,1419,548
7.620115451998572,2071,1431,545
7.622810748998745,2028,1465,566
7.6255056699992565,1985,1422,531
7.628196800998921,1957,1382,508
7.630891180999242,1936,1365,502
7.633584645000155,1925,1319,471
7.636277566998615,2016,1398,543
7.638970654999866,2080,1427,544
7.6416647440000816,2042,1453,557
7.644356123999387,2000,1465,561
7.647048380000342,1967,1389,503
7.649743967998802,1941,1370,503
7.652436764999948,1935,1343,485
7.6551303539999935,1949,1354,509
7.657855026000107,2090,1426,551
7.66055965600026,2086,1443,547
7.6632823279996956,2032,1477,571
7.665975832998811,1987,1419,526
7.668670588998793,1955,1387,508
7.671359926998775,1938,1361,502
7.674052307998863,1930,1312,473
7.6767464379991,2038,1413,555
7.679438859999209,2080,1429,547
7.682133031999911,2039,1456,560
7.684825911999724,1996,1450,548
7.687516250998669,1965,1386,504
7.690206630999455,1941,1376,506
7.6937364709992835,1934,1333,483
7.696440685000198,1983,1379,528
7.699132439998721,2096,1426,545
7.701824236999528,2064,1455,559
7.704515033999996,2011,1464,558
7.707232164999368,1971,1392,506
7.709921919999033,1947,1381,511
7.712634466999589,1933,1339,489
7.715332555999339,1954,1360,511
7.71805206099998,2067,1424,548
7.720752149998589,2062,1433,548
7.723444321998613,2013,1470,571
7.726138660000288,1972,1405,511
7.728833664999911,1949,1377,508
7.731524711998645,1936,1353,498
7.734219009000299,1926,1312,479
7.736913515000197,2044,1410,549
7.739605311999185,2075,1429,547
7.742298524999569,2038,1456,560
7.7449934059986845,1997,1442,544
7.747692453000127,1961,1385,506
7.750392040999941,1943,1376,505
7.7530883379986335,1931,1328,478
7.755779092998637,1991,1377,529
7.758473681999021,2084,1430,546
7.761166936999871,2064,1447,555
7.763858733998859,2018,1484,578
7.7665522810002585,1978,1398,511
7.769245827999839,1950,1385,511
7.771938959000181,1935,1351,496
7.774634380999487,1930,1328,495
7.777334677999534,2031,1409,551
7.780029307999939,2042,1419,542
7.7827248129997315,2015,1453,562
7.7854173599989736,1977,1419,526
7.788110781999421,1954,1376,505
7.790811786999257,1938,1363,503
7.79350179299945,1931,1317,473
7.796192797999538,2009,1390,536
7.798881552998864,2073,1424,544
7.801570558998719,2038,1447,554
7.804261981000309,2002,1470,565
7.806954401999974,1968,1386,499
7.809652157999153,1949,1377,509
7.812343788000362,1935,1342,491
7.8150405019987375,1934,1343,501
7.8177355070001795,2069,1419,546
7.820426012000098,2070,1430,539
7.823118517999319,2025,1465,572
7.825813522998942,1983,1416,528
7.8285044450003625,1954,1379,507
7.831207283999902,1937,1363,502
7.833905121999123,1931,1315,469
7.836626918999173,2031,1408,544
7.839321507999557,2084,1429,543
7.842017762999603,2047,1455,560
7.844714184999248,2002,1459,559
7.847405524000351,1965,1390,502
7.850098654000249,1948,1381,510
7.852790576000189,1936,1339,484
7.855480580999938,1973,1360,511
7.858208544999798,2108,1438,553
7.860918424999909,2096,1455,550
7.8636118060003355,2035,1488,579
7.866304560999197,1987,1415,511
7.868997232999391,1957,1391,511
7.8716926549986965,1939,1360,499
7.874387493999166,1931,1326,486
7.877080373998979,2029,1411,555
7.879769795999891,2055,1424,547
7.882463467998605,2023,1451,560
7.885152265000215,1986,1433,543
7.887843061998865,1954,1360,496
7.890533775000222,1939,1358,502
7.893223488999865,1935,1318,475
7.895912493999276,1989,1374,527
7.898602623999977,2066,1419,543
7.901294045999748,2045,1434,547
7.903992551999181,2002,1471,574
7.906688806999227,1968,1391,503
7.9093803119994845,1950,1375,509
7.912070608999784,1936,1345,493
7.914763197999491,1934,1327,494
7.91745691199867,2089,1424,550
7.920147584000006,2099,1441,547
7.922839130998909,2053,1472,566
7.92553159399904,2000,1435,538
7.92822168299972,1962,1392,506
7.930913729998792,1939,1374,509
7.933607484999811,1927,1326,479
7.936300073999519,2021,1397,542
7.93899416199929,2087,1434,550
7.941688167999018,2064,1455,560
7.944378381000206,2013,1477,573
7.947070512000209,1972,1392,507
7.949773225000172,1951,1383,511
7.952472188999309,1936,1346,491
7.955168651998974,1941,1350,505
7.957863448998978,2081,1424,554
7.960553495999193,2083,1441,546
7.963277209999433,2036,1473,570
7.965972298999986,1989,1420,527
7.968666470998869,1955,1387,507
7.9713568089991895,1938,1363,500
7.9740514810000604,1929,1315,469
7.976743777999218,2029,1408,542
7.979433616999813,2064,1408,534
7.982126371998675,2031,1439,554
7.9848240859992075,1990,1442,547
7.9875180079998245,1959,1375,501
7.990206638000018,1945,1371,507
7.9928967679989,1936,1328,484
7.995586689999982,1969,1362,522
7.99827794599878,2077,1424,547
8.000970033999693,2064,1438,547
8.003659955998955,2023,1475,574
8.00635296099972,1979,1407,511
8.009097717000259,1950,1379,506
8.011827180998807,1936,1359,498
8.014524352998706,1933,1317,481
8.017220065999936,2057,1415,548
8.019912904999728,2075,1429,543
8.022605827000007,2032,1458,560
8.025299707000158,1990,1435,541
8.027990045999104,1962,1383,506
8.030683134000355,1939,1373,509
8.033375430999513,1931,1327,479
8.036065102998691,2001,1387,532
8.03876044199933,2085,1430,546
8.04145215599965,2065,1450,552
8.044142660999569,2016,1486,576
8.046836790999805,1972,1394,506
8.049528379999174,1945,1382,511
8.05221663500015,1935,1348,494
8.05490984899916,1931,1331,495
8.05759997899986,2064,1421,545
8.060316109000269,2069,1424,546
8.063021322999703,2031,1463,565
8.06571495299977,1985,1423,533
8.068404833999011,1958,1382,507
8.071097296999142,1936,1366,506
8.07378967799923,1934,1323,479
8.076479515999381,2007,1393,538
8.079169646000082,2060,1424,546
8.081863692999832,2033,1442,556
8.084556198999053,1993,1460,562
8.087287454000034,1967,1383,499
8.089989709000292,1943,1376,511
8.092700839999452,1936,1339,491
8.095396886999879,1941,1351,501
8.098088558999734,2045,1413,541
8.100780646998828,2035,1423,540
8.105005696999797,2007,1458,565
8.107704493999336,1958,1372,501
8.110402457999953,1940,1366,506
8.113102047000211,1933,1327,479
8.115796385000067,1973,1365,525
8.118492849000177,2079,1422,544
8.12118735399963,2066,1438,548
8.123877608999464,2019,1475,576
8.126573114999701,1970,1399,511
8.129267037000318,1950,1379,511
8.131958709000173,1936,1353,496
8.134650588999648,1935,1326,487
8.137346636000075,2023,1408,547
8.140038890998767,2041,1417,543
8.142732979998982,2012,1447,561
8.14542590199926,1979,1424,534
8.148119489998862,1953,1376,501
8.150813370999458,1938,1363,504
8.15350725099961,1933,1321,475
8.1561994650001,2000,1385,529
8.158893761999934,2079,1425,546
8.161588142000255,2052,1438,546
8.16428002199973,2009,1479,576
8.166973818999395,1973,1392,503
8.169668074999208,1950,1383,510
8.172357579998788,1936,1347,493
8.175050709998686,1932,1338,495
8.1777468399996,2059,1418,549
8.180440303998694,2065,1427,542
8.18313393399876,2027,1461,562
8.185826230999737,1985,1422,530
8.18851565299883,1957,1377,506
8.191250699999728,1936,1367,506
8.193945413999245,1934,1317,470
8.196657753000181,2016,1401,543
8.199350465998577,2065,1425,544
8.20204280500002,2033,1447,559
8.204733769000086,1995,1459,561
8.207427149000068,1965,1386,498
8.210123986998951,1942,1377,510
8.212825950999104,1936,1338,486
8.215520789999573,1948,1351,507
8.218218044999958,2042,1414,546
8.220911884000088,2039,1424,540
8.223604471999352,2001,1458,570
8.226298102999863,1971,1399,523
8.228989732999253,1947,1371,505
8.231681654999193,1936,1353,497
8.234374826999556,1934,1308,477
8.237067164998734,2027,1407,546
8.239759711999795,2059,1423,543
8.242455968000286,2025,1445,559
8.245151139999507,1989,1442,551
8.247843977998855,1959,1380,510
8.25053919200036,1941,1373,510
8.253231863998735,1933,1330,483
8.255923618999077,1971,1373,528
8.25862049999887,2067,1424,548
8.261359087999153,2058,1435,547
8.264062385000216,2010,1463,575
8.266758349000156,1974,1395,509
8.269451395999567,1947,1382,511
8.272146483999677,1936,1351,496
8.274844530998962,1933,1327,489
8.277539327998966,2039,1410,545
8.280230499998652,2057,1424,540
8.282925380999586,2018,1455,560
8.285618510999484,1982,1422,536
8.288310015999741,1952,1374,502
8.291009937998751,1937,1363,500
8.293702901999495,1931,1321,473
8.296395115999985,1999,1383,529
8.299086453998825,2063,1423,545
8.301777417998892,2035,1439,547
8.30446650599879,2000,1472,569
8.307157678000294,1968,1383,501
8.309850224999536,1942,1374,509
8.312542480998673,1931,1342,490
8.315258278000329,1931,1337,495
8.317954240999825,2054,1413,544
8.320648954999342,2058,1424,542
8.323340168999493,2016,1457,562
8.326035799000238,1983,1410,527
8.328730011999141,1952,1376,503
8.331421433998912,1936,1362,496
8.334117480999339,1934,1315,470
8.336815194999872,2022,1405,540
8.339508741999452,2078,1425,544
8.342202996998822,2047,1453,555
8.344894043999375,2003,1461,560
8.347587090998786,1967,1390,505
8.3502813469986,1949,1379,509
8.352976184998624,1936,1341,485
8.355668064999918,1946,1359,510
8.358362320999731,2021,1409,543
8.361057033998804,2007,1415,538
8.363748622999992,1982,1450,563
8.366440752999551,1953,1385,506
8.369137009000042,1936,1362,500
8.371830971998861,1926,1346,496
8.37452531099916,1927,1298,473
8.377218149998953,2039,1408,548
8.379909029999908,2086,1426,541
8.382603160000144,2039,1456,560
8.385297331999027,1999,1447,547
8.387993004000236,1967,1388,506
8.390687175999119,1942,1375,511
8.393378765000307,1936,1329,484
8.39607114499995,1971,1374,528
8.39876356700006,2035,1417,543
8.401453446998858,2028,1425,542
8.404143493999072,1997,1462,574
8.40683529099988,1968,1388,506
8.40952963000018,1947,1373,508
8.412221302000034,1935,1345,496
8.414915014998769,1933,1319,489
8.417609936999725,2045,1413,546
8.420299358998818,2064,1423,546
8.423004030999437,2021,1454,562
8.425705869998637,1983,1425,536
8.428398416999698,1954,1379,502
8.431091880998792,1937,1367,507
8.433789968999918,1932,1323,476
8.436489140998674,2000,1382,528
8.43920918799995,2063,1423,544
8.441930734999914,2035,1438,550
8.44465582399971,1997,1465,561
8.44735170399872,1967,1384,499
8.450045501000204,1946,1375,506
8.452739464999468,1935,1341,489
8.455431386999408,1941,1344,496
8.458123683998565,2071,1421,543
8.460816855998928,2071,1430,542
8.463548527999592,2026,1465,570
8.466258407999703,1984,1413,526
8.468956912998692,1951,1374,502
8.471649126999182,1936,1361,502
8.474343048999799,1933,1312,474
8.477037012999062,2028,1407,545
8.479731142999299,2073,1427,543
8.48243464799998,2035,1452,554
8.485131194998758,1995,1455,551
8.487822825998592,1966,1389,502
8.490518246999272,1947,1374,511
8.49321112799953,1935,1335,486
8.495904800000062,1968,1365,524
8.498596471999917,2068,1424,551
8.501286976999836,2059,1433,547
8.503980023999247,2014,1471,573
8.506671821000054,1974,1402,511
8.509366367999974,1949,1378,509
8.512060122999173,1936,1354,497
8.514757294999072,1930,1318,482
8.5174531749999,2026,1408,544
8.520144721998804,2044,1419,540
8.522840935998829,2017,1446,555
8.525536315999489,1981,1427,535
8.528226779999386,1958,1376,502
8.530920035000236,1938,1367,506
8.533615790998738,1935,1325,477
8.53630096300003,1990,1379,527
8.538994593000098,2063,1422,541
8.541690639998706,2043,1435,545
8.544383144999301,2002,1472,573
8.54707852499996,1969,1391,502
8.549771988999055,1945,1375,509
8.552462077999735,1936,1344,487
8.555153915998744,1934,1328,489
8.55784650500027,2038,1409,541
8.560537134999322,2047,1419,538
8.563258140999096,2014,1454,563
8.565952728999036,1978,1415,528
8.56864598500033,1951,1377,506
8.571336490000249,1936,1358,498
8.57402974499928,1934,1321,475
8.576723166999727,1994,1391,534
8.579414838999583,2041,1418,534
8.582109969000157,2020,1434,550
8.584802849998596,1989,1457,560
8.587492396998641,1962,1375,499
8.590182484998877,1941,1370,503
8.592872531999092,1935,1338,483
8.595563203998609,1931,1341,503
8.598254250999162,2032,1408,544
8.600944005998826,2032,1415,542
8.603634928000247,2002,1455,564
8.606326600000102,1968,1399,524
8.609017980999852,1949,1367,499
8.611707402998945,1936,1357,498
8.614402574999986,1933,1307,469
8.617095829999016,2013,1398,543
8.619787084999189,2053,1419,538
8.622484839999743,2026,1439,551
8.62517826200019,1984,1444,548
8.627868933999707,1962,1377,498
8.63056260600024,1936,1370,507
8.63325398699999,1935,1330,481
8.635943658999167,1954,1359,511
8.638635288998557,2041,1415,546
8.641332793999027,2035,1424,547
8.64402492499903,2000,1459,571
8.646715846000006,1968,1395,511
8.649410434998572,1943,1375,505
8.652100814999358,1935,1351,496
8.65479315399898,1928,1314,479
8.657484700999703,2020,1398,549
8.660174122998797,2046,1418,544
8.66286762799973,2014,1446,560
8.665595758999189,1975,1427,542
8.668298513999616,1957,1374,501
8.670991727998626,1937,1367,511
8.673691566000343,1931,1317,473
8.676385112999924,1967,1373,527
8.679080742998849,2027,1409,541
8.68177437399936,2012,1421,542
8.684465670999998,1985,1456,568
8.687158843000361,1961,1377,499
8.689851055998588,1941,1366,509
8.692542394999691,1934,1341,493
8.695263734000036,1929,1326,491
8.697959281000294,2021,1403,543
8.700649160999092,2015,1402,528
8.703340541000216,2000,1443,560
8.706031212999733,1969,1408,528
8.708722010000201,1949,1367,503
8.71141088999866,1936,1359,496
8.714104228998622,1931,1313,476
8.716875193000305,1995,1387,535
8.719604697998875,2033,1413,541
8.7223049539989,2019,1429,549
8.725000000998989,1983,1451,559
8.727692546999606,1957,1374,499
8.730386678000286,1941,1367,507
8.733080308000353,1931,1330,483
8.735772729998644,1941,1347,507
8.738468902000022,2053,1413,543
8.741163865999624,2047,1424,542
8.743854162999924,2010,1458,567
8.74654800099961,1971,1406,525
8.74924071500027,1949,1373,503
8.75193213700004,1936,1356,499
8.754626017000191,1931,1306,466
8.757317272000364,2017,1403,543
8.760008318999098,2044,1417,537
8.762701407998975,2018,1443,556
8.765395287999127,1985,1440,549
8.768089418999807,1960,1377,505
8.77078442399943,1941,1372,509
8.773525929000243,1935,1328,482
8.776219184999718,1967,1360,511
8.77891489799913,2042,1414,545
8.78161115399962,2032,1424,543
8.784302742000364,2000,1459,570
8.78699553899969,1968,1391,505
8.789688168999419,1946,1374,506
8.79237959099919,1935,1346,496
8.795072762999553,1930,1319,484
8.79776456000036,2021,1407,547
8.800455732000046,2037,1414,535
8.803146153999478,2007,1445,560
8.805838325999503,1973,1421,539
8.808529706999252,1953,1370,502
8.811256128999958,1939,1365,506
8.813951967000321,1934,1321,474
8.816647181000008,1984,1377,527
8.81934006099982,2032,1413,538
8.822034941000311,2021,1426,546
8.82473027999913,1986,1462,563
8.827420826999514,1961,1377,496
8.830113541000173,1939,1367,507
8.832809753999754,1935,1338,490
8.835502800999166,1931,1329,496
8.838196847998915,2009,1399,540
8.840892979000273,2014,1407,533
8.84358498399888,1986,1442,558
8.84628015599992,1965,1395,511
8.848974036000072,1943,1365,502
8.85166370799925,1936,1354,497
8.854356546999043,1931,1307,469
8.857050552000146,2010,1392,539
8.859741557000234,2064,1421,545
8.862434396000026,2034,1440,553
8.865132068000094,1994,1456,560
8.867855906999466,1964,1382,496
8.870562869999048,1945,1374,507
8.873259791998862,1932,1334,480
8.875949630999457,1943,1351,507
8.878643885998827,2027,1403,537
8.881337015998724,2022,1418,536
8.884026521998749,1994,1455,562
8.886719776999598,1967,1394,511
8.88941494899882,1947,1366,499
8.892106579000028,1936,1350,496
8.89480175099925,1929,1303,473
8.897497297999507,2020,1399,540
8.900190219999786,2047,1418,538
8.902884058999916,2018,1442,558
8.905580730999645,1983,1436,541
8.9082724029995,1953,1377,499
8.910965282999314,1943,1369,505
8.913659871999698,1934,1328,480
8.916352501999427,1973,1372,523
8.919046298999092,2053,1419,542
8.921740845999011,2036,1427,545
8.924433725998824,2000,1463,567
8.92712598199978,1968,1390,509
8.929820819999804,1947,1373,508
8.932513075000315,1935,1345,495
8.935232664000068,1931,1325,485
8.937927502998718,2039,1412,549
8.94064404999881,2063,1424,542
8.94333872199968,2023,1455,560
8.946033143998648,1987,1424,531
8.948726982000153,1955,1377,505
8.95141794600022,1937,1364,499
8.954110992999631,1931,1322,475
8.956802706999952,2003,1387,530
8.95949483699951,2062,1421,542
8.962189926000065,2033,1439,550
8.96488668100028,2000,1467,562
8.967577893999987,1961,1382,500
8.970273357999758,1945,1374,506
8.972966530000122,1937,1344,487
8.975656784999956,1933,1339,498
8.978349666000213,2058,1416,547
8.981044420999751,2061,1422,534
8.983734968000135,2019,1463,567
8.9864295569987,1983,1413,523
8.989123436998852,1954,1380,506
8.991816649999237,1937,1360,501
8.994512696999664,1933,1313,471
8.997204827999667,1998,1392,542
8.999895999999353,2032,1411,541
9.002586921998954,2013,1431,557
9.005278509999698,1980,1445,551
9.00796789099877,1954,1373,499
9.010705770999266,1941,1370,505
9.01343665099921,1934,1329,482
9.016128406999997,1952,1356,509
9.018825994999133,2022,1406,543
9.021520375999899,2018,1412,538
9.024213672999394,1987,1450,566
9.026909469999737,1961,1390,511
9.029604016999656,1946,1365,503
9.032296313000188,1936,1344,495
9.034989402000065,1927,1307,479
9.037691240999266,2019,1400,543
9.040384287998677,2043,1413,537
9.043079459999717,2015,1441,557
9.04577200699896,1982,1428,539
9.048462969998582,1953,1373,499
9.051158891999876,1936,1365,504
9.053853897999943,1934,1325,478
9.056548402999397,1973,1369,528
9.059273157999996,2032,1414,543
9.061968996998985,2017,1424,543
9.06466441900011,1988,1458,570
9.067356841000219,1961,1379,501
9.070079095999972,1942,1370,509
9.072787350998624,1935,1344,494
9.075480106999748,1927,1322,489
9.078175069998906,2025,1408,543
9.080868450999333,2034,1411,536
9.083559205999336,1998,1439,557
9.086252585999318,1973,1411,528
9.088946924999618,1953,1370,501
9.091640013999495,1936,1360,502
9.094337935999647,1935,1315,471
9.097039357999165,2001,1390,533
9.099749737999446,2054,1419,543
9.102448243000254,2030,1438,548
9.105140997999115,1988,1456,561
9.107833003999986,1965,1379,501
9.110524841998995,1941,1369,506
9.113229138998577,1935,1337,487
9.11592231099894,1938,1345,500
9.118617899999663,2026,1407,544
9.121313988998736,2019,1410,539
9.12400878599874,1990,1450,560
9.126706416000161,1965,1393,511
9.129402171000038,1945,1364,498
9.13209450999966,1936,1350,496
9.134789514999284,1930,1307,466
9.137485104000007,1999,1391,541
9.140185608999673,2023,1406,540
9.142883947999508,2003,1432,557
9.145581744998708,1968,1434,547
9.14827370799867,1958,1371,499
9.1509675469988,1937,1367,506
9.15366221899967,1936,1328,482
9.156355723998786,1963,1361,511
9.15905081299934,2042,1414,546
9.161744901999555,2033,1424,543
9.164436572998966,2000,1461,566
9.16713199500009,1970,1392,508
9.169827875999545,1949,1375,507
9.172518838999167,1934,1347,495
9.175243260999196,1924,1316,481
9.177940349998607,2014,1404,547
9.180659771998762,2031,1411,537
9.183355901999676,2000,1438,557
9.186054073999912,1971,1410,528
9.188748079999641,1950,1370,502
9.19143987699863,1936,1363,503
9.194134798999585,1930,1319,475
9.196831178998764,1984,1377,526
9.199524976000248,2037,1411,539
9.202217105999807,2021,1430,548
9.204909235999367,1986,1463,570
9.207599991999814,1963,1379,501
9.210291829998823,1945,1371,507
9.212982876999376,1936,1341,490
9.215677008000057,1936,1331,496
9.218375012998877,2041,1411,539
9.221071684998606,2052,1415,541
9.223765398999603,2015,1455,563
9.226461029000347,1981,1413,523
9.229155576000267,1953,1375,503
9.231848330999128,1936,1360,501
9.234543960999872,1933,1315,471
9.237237466999431,1995,1391,539
9.239929721999943,2032,1410,539
9.242623852000179,2014,1430,549
9.245320357998935,1983,1452,555
9.24801386299987,1958,1374,498
9.250715534999472,1943,1370,502
9.253411914998651,1931,1331,478
9.256102670999098,1945,1351,508
9.258799008999631,2047,1414,545
9.26149438900029,2047,1424,541
9.264188060999004,2003,1461,565
9.266883816999325,1975,1405,511
9.269577863999075,1949,1374,505
9.27231278599902,1938,1355,497
9.2750164579993,1933,1306,474
9.277712462999261,2000,1398,545
9.280405759998757,2022,1409,531
9.283100806998846,2002,1434,549
9.285795145999145,1973,1427,542
9.288488067999424,1952,1360,494
9.291180739999618,1936,1365,505
9.293874994998987,1934,1327,478
9.296594833998824,1967,1365,526
9.299289089000013,2043,1411,541
9.30198188599934,2032,1425,539
9.304682723999576,1999,1461,568
9.307373562998691,1968,1389,502
9.310064735000196,1949,1372,506
9.312757448999037,1936,1344,493
9.315450537000288,1932,1323,484
9.3181443759986,2032,1407,545
9.320838589999767,2039,1415,539
9.323529761999453,2011,1446,559
9.326222767000218,1975,1419,533
9.328916229998867,1952,1373,501
9.331606402000034,1937,1363,503
9.334301573999255,1931,1316,475
9.336994954999682,1992,1379,528
9.33968516799905,2054,1418,543
9.3423792149988,2032,1431,551
9.34507222100001,1995,1469,563
9.347765308999442,1966,1382,501
9.350459940000292,1943,1373,506
9.35315198599892,1936,1341,491
9.355844532999981,1929,1334,496
9.358537871999943,2004,1399,539
9.361232668999946,2008,1406,533
9.363924840999971,1990,1439,559
9.366617554998811,1962,1393,511
9.369309435000105,1948,1362,498
9.37200027399922,1935,1354,496
9.374691861999963,1933,1308,467
9.377385325999057,1996,1390,537
9.380077705998701,2027,1407,533
9.38277041999936,2011,1428,549
9.385462591999385,1980,1443,554
9.388153388999854,1959,1370,498
9.390847143999054,1937,1359,497
9.393541023999205,1935,1330,485
9.396229987998595,1943,1349,505
9.398923367998577,2027,1406,543
9.401616207000188,2021,1414,538
9.404308586999832,1993,1451,566
9.407001841998863,1965,1393,511
9.409695930999078,1943,1365,505
9.412388644999737,1935,1347,496
9.415080066999508,1933,1303,471
9.417776029999004,2019,1400,544
9.420468035999875,2047,1415,541
9.423158457999307,2023,1441,559
9.42585154599874,1981,1435,546
9.428540925999187,1952,1376,498
9.431319473998883,1941,1371,509
9.434015770999395,1931,1328,477
9.4367104009998,1968,1370,527
9.439404030999867,2030,1409,539
9.442097744999046,2017,1422,543
9.44479337499979,1988,1457,569
9.447483838999688,1959,1377,507
9.450177843998972,1945,1367,507
9.452870182998595,1933,1343,494
9.45556056299938,1924,1320,487
9.458253151999088,2034,1406,544
9.460946323999451,2047,1417,541
9.46363682899937,2011,1451,558
9.466330041999754,1981,1418,528
9.469022880999546,1951,1369,499
9.471714927998619,1936,1362,503
9.474435432999599,1930,1317,467
9.477139147000344,1977,1376,528
9.47982819400022,2021,1407,538
9.4825225329987,2006,1424,543
9.485214329999508,1979,1451,560
9.487902793000103,1956,1372,496
9.490593631999218,1942,1365,505
9.493285429000025,1934,1328,481
9.495973933999267,1936,1334,496
9.498668606000138,2005,1399,539
9.501358027999231,2007,1405,532
9.50404649200027,1986,1439,560
9.50673457999983,1962,1393,511
9.509425586000361,1947,1363,497
9.512115757999709,1936,1355,497
9.514805679998972,1931,1306,468
9.517494600999271,2000,1390,538
9.520182981999824,2035,1410,534
9.522873486999742,2015,1431,552
9.52556661699964,1977,1446,553
9.528257288999157,1953,1373,497
9.530950002999816,1941,1366,506
9.53364346699891,1920,1322,473
9.53633672199976,1943,1349,506
9.539029768999171,2015,1403,539
9.541727357998752,2016,1411,537
9.544421362999856,1984,1450,560
9.547116284998992,1963,1392,511
9.549809789999927,1946,1364,502
9.552501254000163,1936,1346,496
9.555204633999892,1930,1302,470
9.557898514000044,2025,1405,544
9.56061822799893,2062,1420,538
9.563310232999356,2027,1446,555
9.566897114998937,1989,1435,544
9.569610745998943,1959,1381,506
9.572303750999708,1938,1357,498
9.574997922998591,1936,1310,465
9.577692344999377,2000,1398,539
9.580382975000248,2027,1410,534
9.583076064000124,2002,1431,551
9.585770777999642,1976,1437,548
9.588461366000047,1953,1369,497
9.591156454998782,1936,1366,501
9.593849126998975,1931,1328,479
9.59655521499917,1967,1360,511
9.599279845999263,2066,1422,544
9.60197589299969,2055,1431,544
9.604669189999186,2011,1470,571
9.607358612000098,1973,1398,510
9.610052408999763,1951,1377,505
9.61274391400002,1933,1351,496
9.61543554399941,1933,1319,483
9.618130799999562,2027,1409,546
9.620824263000031,2057,1422,538
9.62351605999902,2021,1450,560
9.626209314999869,1985,1430,538
9.628903570999682,1959,1378,500
9.631595242999538,1939,1371,501
9.63428941500024,1935,1325,475
9.636984836999545,1979,1376,525
9.639676134000183,2045,1415,541
9.642370681000102,2031,1430,546
9.645064852998985,1991,1466,573
9.647754523999538,1967,1383,500
9.650446695999563,1945,1372,506
9.653139826999904,1934,1342,489
9.65583041500031,1930,1327,494
9.658524795999256,2039,1408,543
9.661218051000105,2052,1421,541
9.663912305999474,2018,1453,560
9.666609019999669,1979,1417,527
9.669303316999503,1954,1376,501
9.671994405000078,1936,1362,502
9.674729118998584,1934,1317,471
9.67743466599859,1999,1392,539
9.680126795999968,2039,1415,539
9.682821843000056,2019,1435,549
9.6855155989997,1987,1453,559
9.688206311999238,1958,1380,499
9.69090106799922,1943,1373,506
9.693593739999415,1931,1335,486
9.696286702999714,1936,1344,499
9.698982959000205,2038,1410,539
9.701676213999235,2038,1423,538
9.704366302999915,2006,1456,566
9.707055433000278,1971,1403,525
9.709745812999245,1952,1374,502
9.712436567999248,1937,1357,497
9.715130573998977,1932,1306,467
9.717823495999255,2017,1399,543
9.72052104300019,2045,1414,538
9.723247672998696,2021,1443,555
9.72594521999963,1984,1442,548
9.728666683999108,1957,1377,501
9.731360939000297,1941,1372,505
9.734055318998799,1931,1327,480
9.736749532999966,1967,1364,511
9.73944170499999,2043,1415,546
9.74213545999919,2038,1425,545
9.744826506999743,2001,1462,573
9.74753613699977,1968,1392,507
9.750231308998991,1948,1375,508
9.752926814999228,1936,1347,495
9.75561890300014,1931,1321,485
9.758313074999023,2038,1411,549
9.761011081000106,2058,1424,542
9.763706293999348,2020,1455,560
9.766400340999098,1984,1424,531
9.769095679999737,1954,1377,502
9.771787351999592,1936,1367,505
9.774481524000294,1935,1316,478
9.77718069599905,1988,1381,529
9.779873284000132,2061,1423,544
9.782567330999882,2035,1437,551
9.785260086999187,1999,1471,571
9.787952716998916,1967,1385,501
9.790646596999068,1943,1377,506
9.793343227998776,1936,1342,488
9.796036316000027,1931,1333,496
9.798732946999735,2037,1408,546
9.801430076999168,2039,1418,538
9.804117456998938,2007,1452,566
9.806812128999809,1975,1408,526
9.809506759000215,1952,1369,506
9.812199097999837,1937,1360,502
9.814891894999164,1930,1312,470
9.817588858999443,1999,1393,539
9.820282071999827,2043,1414,542
9.822976743998879,2021,1434,551
9.825672582999687,1989,1452,557
9.828367922000325,1961,1378,499
9.831065509999462,1945,1369,508
9.833759139999529,1936,1335,482
9.836451854000188,1939,1348,505
9.839150817999325,2017,1405,543
9.841847989999224,2010,1411,537
9.844541077998656,1987,1443,563
9.84726533399953,1961,1392,511
9.849961296999027,1941,1364,505
9.852655177999623,1935,1347,496
9.855349182998907,1933,1299,475
9.85804639699927,2003,1395,544
9.860742693999782,2027,1408,535
9.863433448999785,2003,1433,551
9.866128620999007,1974,1425,544
9.868821375999687,1953,1371,501
9.871512964999056,1936,1363,509
9.874209052999504,1933,1325,481
9.876936808999744,1967,1364,511
9.879635355999199,2025,1409,541
9.882329152998864,2018,1419,541
9.885036240999398,1987,1456,571
9.887730954998915,1965,1382,503
9.890428168999279,1947,1368,503
9.89312288200017,1935,1344,493
9.895813887998884,1935,1321,490
9.898508393000157,2029,1405,547
9.901204064999547,2053,1414,535
9.903902070000186,2010,1434,553
9.90660194999873,1974,1406,511
9.909293538999918,1952,1360,493
9.91198529400026,1936,1358,493
9.914678174998699,1934,1313,464
9.917370054999992,2013,1382,525
9.920063809999192,2084,1424,537
9.92275935699945,2054,1444,543
9.92545794599937,2000,1471,560
9.928151075999267,1963,1385,496
9.930846122999355,1936,1375,500
9.933537961998809,1925,1349,491
9.9362294249986,1925,1344,498
9.938924389000022,2026,1408,544
9.941618478000237,2029,1415,540
9.944309607999458,2000,1451,561
9.947002072000032,1967,1402,523
9.949695826999232,1948,1370,505
9.952390456999638,1935,1357,502
9.955088753999007,1927,1310,469
9.957783592999476,1999,1392,540
9.960476014999585,2032,1407,534
9.96317051999904,2011,1434,550
9.965863899999022,1983,1443,549
9.968554863999088,1949,1373,498
9.971280702999138,1943,1367,506
9.973974999998973,1936,1329,483
9.976670213000034,1944,1353,511
9.979362259999107,2015,1403,541
9.98205593199964,2013,1410,537
9.984753187998649,1985,1449,562
9.987445568000112,1963,1391,507
9.990141030999439,1943,1366,503
9.99283628699959,1934,1345,495
9.995521666998684,1930,1307,477
9.998217172000295,1993,1394,542
10.000913968999157,2013,1403,534
10.00360609999916,1995,1427,555
10.006298271999185,1967,1417,533
10.008989026999188,1951,1363,496
10.011732365999706,1936,1360,502
10.014461662998656,1929,1321,477
10.017156542999146,1981,1370,527
10.019849964999594,2039,1411,540
10.02254571999947,2023,1424,543
10.02524055899994,1991,1461,566
10.027932064000197,1959,1379,498
10.030626443998699,1943,1370,506
10.033321158000035,1930,1339,492
10.036011954998685,1932,1326,495
