time,y1,y2,y3
0.006097219998991932,2274,1042,495
0.008929225999963819,2160,1213,489
0.011665938998703496,2039,1223,433
0.014394320000064909,1968,1255,448
0.017138699999122764,1935,1249,443
0.019877246999385534,1922,1261,450
0.022607793998759007,2260,1423,537
0.02533213300011994,2290,1483,549
0.028058930000042892,2189,1527,574
0.030786184999669786,2073,1479,541
0.03351206599836587,1986,1424,511
0.03623469599915552,1939,1396,504
0.038958825998633984,1921,1333,473
0.04168041499906394,2138,1447,553
0.044402086999980384,2249,1501,563
0.04714180099836085,2183,1524,576
0.0498758479989192,2086,1529,576
0.05260731199996371,1998,1437,525
0.055334566999590606,1950,1413,524
0.058060530998773174,1926,1359,486
0.060787660999267246,2013,1397,528
0.06351624999842898,2209,1479,562
0.06628221299979487,2185,1500,562
0.06901238599857606,2097,1534,590
0.07174222399953578,2011,1443,526
0.0744729379985074,1957,1411,511
0.07719844299936085,1921,1370,497
0.07992582399856474,1923,1342,494
0.08265320399914344,2201,1467,561
0.08537825099847396,2224,1495,560
0.08810334000008879,2139,1530,579
0.09083005299908109,2041,1475,543
0.09355793399845425,1973,1422,511
0.09628856400013319,1936,1394,511
0.0990172359997814,1920,1331,475
0.10174165799980983,2146,1453,558
0.104466789000071,2245,1501,560
0.10719437699845002,2174,1528,574
0.10991863299932447,2080,1523,570
0.11264297099842224,1995,1438,511
0.1153687269998045,1945,1410,511
0.11811077399943315,1922,1355,481
0.12084773799870163,2015,1399,528
0.12355965999995533,2221,1483,562
0.1262702479998552,2192,1508,566
0.12895637799920223,2099,1535,589
0.13164792499992473,2009,1447,528
0.13434243099982268,1956,1411,511
0.1370322689999739,1927,1375,496
0.13972219099923677,1915,1333,482
0.1424117379992822,2175,1462,562
0.14509970200015232,2209,1489,560
0.14778979099901335,2133,1520,576
0.1504796709996299,2043,1486,550
0.15316700899893476,1974,1420,511
0.15585605599881092,1939,1397,510
0.1585480199992162,1922,1341,478
0.16123644199979026,2081,1423,538
0.16392415599875676,2227,1488,561
0.1666117029999441,2187,1517,569
0.16929883299962967,2094,1535,589
0.17198683799870196,2005,1439,511
0.17467471799864143,1955,1415,528
0.17736201499974413,1925,1369,496
0.18005135399835126,1918,1344,494
0.1827433589987777,2142,1451,559
0.18543028099884395,2151,1470,552
0.18812024499857216,2085,1499,572
0.19080791699889232,2004,1447,534
0.19349329699980444,1955,1400,507
0.19617959399874962,1926,1377,503
0.19886847399902763,1917,1321,467
0.20157072999973025,2106,1424,544
0.20426898499863455,2222,1485,559
0.20695923999846855,2169,1511,564
0.209647245999804,2075,1520,576
0.21234141799868667,1996,1426,510
0.2150437559994316,1947,1408,511
0.21775588699892978,1921,1359,487
0.22046797499933746,1954,1370,509
0.22316602199862245,2155,1456,556
0.22585881899976812,2153,1475,557
0.22855149099996197,2081,1506,576
0.231242954998379,2001,1440,528
0.23393500199927075,1954,1398,509
0.23662954899918986,1926,1370,497
0.2393243459991936,1917,1314,464
0.24201539299974684,2117,1438,551
0.2447099809996871,2178,1472,554
0.24740231999930984,2121,1497,567
0.25009249199865735,2035,1487,556
0.25278457999957027,1972,1410,509
0.2554815859984956,1936,1392,508
0.2581804239998746,1916,1339,480
0.26090367999859154,1993,1386,528
0.26360035200013954,2146,1454,553
0.2662953989984089,2127,1472,555
0.2689869459991314,2059,1503,575
0.2716815339990717,1986,1420,509
0.2743811229993298,1943,1392,507
0.27707504499994684,1921,1355,495
0.27977138399910473,1915,1325,481
0.2824668469984317,2122,1436,553
0.2851624359991547,2150,1459,543
0.28786139899966656,2093,1488,565
0.29055632099880313,2015,1455,542
0.29324449299929256,1962,1398,501
0.2959377899987885,1930,1380,498
0.29863354599910963,1915,1328,470
0.30132946799858473,2072,1408,531
0.3040254729985463,2192,1472,557
0.30671952000011515,2149,1491,563
0.30941219199849,2064,1520,579
0.3121071139994456,1989,1421,505
0.31480203599858214,1940,1397,509
0.31749595799919916,1918,1357,489
0.3201939209993725,1929,1346,494
0.32288584299931244,2155,1446,556
0.32557688999986567,2160,1470,550
0.328267020999192,2089,1502,575
0.33095848399898387,2004,1443,528
0.3336499899996852,1957,1399,505
0.3363416619995405,1925,1375,499
0.33903949999876204,1913,1322,467
0.34173204699982307,2080,1423,544
0.34442709399991145,2160,1463,549
0.34711980799875164,2112,1485,559
0.34981310500006657,2032,1489,560
0.35250911000002816,1971,1406,501
0.35521257399886963,1935,1391,506
0.35790670399910596,1918,1342,480
0.3606015839995962,1962,1363,507
0.3632961309995153,2147,1450,553
0.3659864279998146,2136,1469,544
0.3686805170000298,2066,1502,576
0.3713791889986169,1993,1431,525
0.37407590199836704,1947,1391,507
0.3767707409988361,1921,1362,495
0.3794655799993052,1911,1311,466
0.38216141799966863,2074,1424,550
0.3848887989988725,2119,1446,548
0.38758451200010313,2074,1472,560
0.3902806009991764,2003,1456,544
0.3929728979983338,1957,1392,498
0.39566761199967004,1927,1376,502
0.39836457499950484,1914,1327,475
0.40105820600001607,2016,1378,527
0.4037522109993006,2172,1456,549
0.40644671599875437,2144,1479,557
0.4091433049998159,2059,1510,578
0.4118388099996082,1986,1419,503
0.4145367319997604,1946,1393,505
0.4172310710000602,1918,1359,490
0.41992707600002177,1908,1326,480
0.4226190809986292,2162,1451,551
0.42531066999981704,2192,1477,550
0.42800221699872054,2116,1511,571
0.430692846999591,2029,1468,542
0.43338276899885386,1965,1409,509
0.43607419099862454,1929,1385,507
0.4387652799996431,1911,1328,470
0.44145945199852576,2065,1411,534
0.4441522899996926,2180,1472,553
0.44684925399997155,2140,1490,560
0.4495429679991503,2056,1519,576
0.45223938999879465,1983,1415,501
0.45493347799856565,1938,1393,509
0.45762589999867487,1917,1350,486
0.4603213219997997,1930,1348,496
0.4630161609984498,2172,1455,555
0.46570662399972207,2174,1478,554
0.46840221299862606,2098,1508,577
0.471095509999941,2011,1449,529
0.4737891819986544,1954,1403,506
0.476483645999906,1921,1376,499
0.4791795259989158,1909,1318,466
0.4818741149993002,2096,1427,546
0.484567244999198,2177,1470,553
0.48726429199996346,2125,1493,563
0.48995550499967067,2038,1493,562
0.49264938599844754,1973,1409,507
0.49534359899917035,1933,1393,507
0.4980283959994267,1915,1343,475
0.5007215679997898,1983,1374,510
0.503420864999498,2205,1469,559
0.5061151209993113,2189,1490,558
0.508809458999167,2101,1523,577
0.5115058809988113,2009,1450,528
0.5142298449991358,1952,1407,511
0.5169256829994993,1920,1373,497
0.5196213969993551,1906,1319,473
0.5223140689995489,2137,1451,558
0.5250436579990492,2191,1476,551
0.5277495379996253,2122,1504,567
0.5304441270000098,2032,1479,548
0.5331367989983846,1963,1409,507
0.535829553999065,1929,1391,507
0.538523183999132,1908,1332,475
0.5412170649997279,2031,1398,528
0.5439137369994569,2171,1465,552
0.5466086999986146,2137,1483,560
0.5493038309996336,2060,1514,581
0.5519985859991721,1984,1419,506
0.5546927989998949,1939,1392,506
0.5573856800001522,1915,1356,487
0.5600818929997331,1911,1328,484
0.5627772319985525,2145,1444,553
0.565471236999656,2161,1466,548
0.5681702839992795,2095,1499,571
0.5708637899988389,2013,1454,530
0.5735527950000687,1954,1398,505
0.5762530499996501,1923,1377,500
0.578946638999696,1909,1323,466
0.5816377689989167,2063,1410,537
0.5843316489990684,2155,1459,549
0.5870244049983739,2112,1479,559
0.5897140349989058,2032,1496,568
0.5924079149990575,1969,1402,500
0.5951015459995688,1933,1389,505
0.5977931759989588,1913,1344,485
0.6004824729989195,1929,1360,511
0.6031757699984155,2080,1431,555
0.6058689419987786,2077,1441,549
0.6085660299995652,2025,1473,566
0.6112601189997804,1975,1414,527
0.6139507909992972,1940,1378,503
0.6166413800001465,1921,1359,497
0.6193349679997482,1914,1305,469
0.6220268899996881,2035,1407,545
0.6247177289988031,2089,1431,545
0.6274108179986797,2046,1456,559
0.6301605310000014,1997,1456,557
0.6328893699992477,1951,1386,503
0.6355857089984056,1926,1372,510
0.6382790469997417,1914,1326,481
0.6409706779995759,1971,1365,521
0.6436602249996213,2095,1425,549
0.6463537299987365,2078,1444,549
0.6490438599994377,2022,1472,573
0.6517358649998641,1970,1403,510
0.654429911999614,1940,1378,511
0.657119708999744,1917,1349,497
0.6598132149993035,1909,1311,483
0.6625075529991591,2077,1423,555
0.665196724999987,2103,1439,549
0.6678897719993984,2059,1469,568
0.6705851939987042,2000,1443,543
0.6732774079991941,1953,1390,502
0.6759721210000862,1927,1374,509
0.678664002000005,1917,1323,478
0.6813537149992044,1990,1381,528
0.6840480119990389,2080,1424,545
0.6867393089996767,2059,1443,553
0.6894271900000604,2002,1475,576
0.6921210279997467,1958,1388,500
0.6948148669998773,1936,1374,511
0.6975609139990411,1921,1341,493
0.7002934189986263,1920,1327,496
0.7030323409999255,2074,1418,547
0.7057625549987279,2080,1435,544
0.7084551849984564,2030,1464,565
0.7111469819992635,1978,1415,529
0.7138361540000915,1943,1375,505
0.7165266599986353,1925,1360,498
0.7192171229999076,1916,1309,469
0.7219083780000801,2023,1400,540
0.72459813399837,2094,1433,544
0.7273332229997322,2060,1455,555
0.7300263109991647,2000,1465,557
0.7327268159988307,1959,1386,503
0.7354166129989608,1933,1374,507
0.7381052439995983,1920,1331,485
0.7407951659988612,1954,1359,511
0.7434834629984834,2101,1424,550
0.746171675998994,2090,1445,547
0.7489075979992776,2032,1481,576
0.7515993950000848,1981,1413,524
0.7542887759991572,1945,1381,509
0.75698832299895,1927,1360,496
0.7596846609994827,1918,1309,475
0.7623765829994227,2075,1424,553
0.7650694219992147,2114,1441,550
0.7677614269996411,2069,1472,563
0.7704528069989465,2007,1457,549
0.7731415210000705,1962,1392,507
0.7758318179985508,1931,1378,511
0.7785209069988923,1920,1330,482
0.7812094949986204,1996,1383,528
0.7838997089984332,2113,1442,551
0.7865887560001283,2094,1456,555
0.7892769279987988,2032,1488,577
0.7919650999992882,1975,1408,511
0.7946549799999048,1941,1388,511
0.7973572349983442,1927,1355,495
0.8000574909983698,1919,1325,489
0.8027503710000019,2117,1438,559
0.8054391679997934,2149,1459,557
0.8081296309992467,2086,1489,576
0.8108185529999901,2016,1456,545
0.8135073089997604,1967,1399,511
0.8161949810000806,1934,1382,511
0.8188832779997028,1924,1328,486
0.8215718659994309,2023,1401,538
0.8242596629988839,2117,1450,557
0.8269482099985908,2090,1467,560
0.8296358819989109,2029,1497,576
0.8323244289986178,1977,1402,506
0.8350105589997838,1939,1389,511
0.8377086059990688,1920,1349,493
0.8404256119993079,1914,1335,497
0.8431257419997564,2096,1425,557
0.8458158309986175,2103,1445,546
0.8485069189991918,2046,1477,570
0.8511986329995125,1989,1424,529
0.8538869719996001,1949,1385,510
0.8565763520000473,1932,1367,504
0.8592655239990563,1919,1317,471
0.8619561119994614,2091,1424,555
0.86464690899993,2176,1469,559
0.8673387059989182,2128,1491,571
0.8700261279991537,2055,1502,575
0.8727182169986918,1983,1414,511
0.8754052639997099,1947,1401,523
0.8780931439996493,1927,1350,495
0.8807811489987216,1964,1367,524
0.8834683209988725,2182,1463,566
0.8861567849999119,2173,1487,563
0.8888854149990948,2098,1519,586
0.8915752959983365,2013,1453,539
0.8942905929998233,1966,1410,525
0.8969785979988956,1930,1379,511
0.899683436999112,1921,1323,480
0.9023838590001105,2125,1450,561
0.9050739469985274,2190,1478,561
0.9077616189988476,2129,1507,576
0.910451791000014,2047,1491,565
0.9131391709997843,1977,1419,524
0.9158279269995546,1944,1398,527
0.9185163900001498,1927,1345,491
0.9212037709985452,2019,1401,539
0.9238924009987386,2202,1478,566
0.9265809059997991,2182,1502,569
0.9293089949987916,2095,1533,592
0.9320000839998102,2011,1445,528
0.9346888799991575,1961,1413,511
0.9373762609993719,1934,1376,502
0.9400646409994806,1922,1337,496
0.9427523549984471,2140,1454,563
0.945438318000015,2176,1477,560
0.9481264899986854,2106,1507,579
0.9508153709994076,2028,1473,551
0.9535022509990085,1970,1415,523
0.9561896309987787,1938,1392,511
0.9588842199991632,1924,1340,483
0.9615722669987008,2066,1414,544
0.9642639389985561,2198,1479,565
0.9669543609998072,2158,1501,570
0.9696415739999793,2075,1530,593
0.9723312459991575,1999,1430,523
0.9750189179994777,1954,1408,527
0.9777054649985075,1933,1365,502
0.9803947619984683,1925,1350,507
0.9830839759997616,2182,1459,571
0.9857723979985167,2201,1489,568
0.9884611529996619,2127,1523,587
0.9911532829992211,2032,1471,549
0.993842121999478,1971,1418,527
0.9965300019994174,1939,1393,511
0.9992337569983647,1909,1326,470
1.001980470999115,2096,1430,557
1.0047031849990162,2192,1483,566
1.0073971490000986,2146,1506,575
1.0100866119992133,2064,1514,576
1.0127757840000413,1987,1424,523
1.0154647059989657,1950,1406,527
1.0181540449993918,1925,1359,495
1.0208836749989132,1962,1370,511
1.0235758049984724,2157,1456,560
1.0263176019998355,2149,1477,560
1.0290403989984043,2082,1513,583
1.0317325709984289,2001,1441,531
1.0344218679983896,1962,1405,511
1.0371109989991965,1935,1371,503
1.0398011289998976,1922,1323,481
1.0424939259992243,2124,1445,560
1.0451831809987198,2173,1472,560
1.0478726029996324,2114,1499,576
1.0505692749993614,2035,1483,560
1.0532737389985414,1978,1413,523
1.0559715359995607,1941,1393,524
1.0586721659983596,1925,1344,486
1.0613643379983841,2041,1406,538
1.0640577179983666,2210,1474,565
1.066748014998666,2178,1501,570
1.0694463119998545,2094,1531,592
1.0721356509984616,2003,1441,530
1.0748278229984862,1957,1413,527
1.0775172869998642,1934,1374,503
1.0802073750001,1920,1342,495
1.0828976719985803,2181,1465,571
1.0855892609997682,2213,1493,567
1.0882886829986091,2135,1523,587
1.0909787299988238,2047,1487,555
1.0936672349998844,1982,1424,528
1.0963573239987454,1939,1401,528
1.0990665369990893,1925,1339,484
1.1017664589999185,2088,1426,554
1.104462755998611,2219,1490,569
1.107154052999249,2173,1515,576
1.1098433079987444,2082,1535,592
1.1125348969999322,2003,1437,527
1.1152256109999144,1956,1414,528
1.1179161579984793,1928,1366,496
1.1206088709986943,1937,1360,511
1.1232994599995436,2195,1471,566
1.1259882149988698,2206,1495,561
1.1286784289986826,2127,1530,591
1.1313998929999798,2033,1470,551
1.1340914809989044,1971,1419,528
1.1367814029999863,1938,1392,511
1.139470366999376,1927,1333,481
1.1421588719986175,2128,1449,560
1.1448902939991967,2226,1494,567
1.1475815909998346,2166,1520,581
1.1502981799985719,2079,1520,577
1.152989352000077,2000,1435,525
1.1556796899985784,1952,1414,528
1.1583710289996816,1930,1360,495
1.1610583679994306,2009,1392,533
1.1637470810001105,2224,1488,575
1.1664376699991408,2203,1509,573
1.1691262999993342,2110,1535,592
1.1718150969991257,2027,1462,538
1.1745028939985787,1968,1421,527
1.1771907739985181,1936,1388,511
1.1798791959990922,1924,1331,489
1.182569076998334,2156,1459,571
1.1852603739989718,2207,1489,566
1.1879493789983826,2143,1520,582
1.1906382170000143,2061,1495,562
1.1933244729989383,1985,1425,528
1.1960136449997663,1945,1406,526
1.1987253999996028,1925,1350,490
1.2014305719985714,2059,1418,544
1.204131618998872,2250,1499,576
1.2068314579992148,2217,1523,579
1.2095253379993665,2118,1557,602
1.2122226769988629,2025,1456,530
1.2149208489990997,1965,1424,530
1.2176129370000126,1935,1382,509
1.220309358999657,1923,1348,502
1.2230059479988995,2176,1467,567
1.2256984109990299,2203,1492,567
1.2283934579991183,2127,1523,586
1.2310827969995444,2037,1482,557
1.2337713859997166,1981,1422,528
1.2364634329987894,1942,1398,511
1.2391629379999358,1922,1339,485
1.2418582769987552,2083,1424,549
1.2445525319999433,2192,1482,563
1.247244578999016,2145,1502,570
1.2499370009991253,2068,1520,581
1.2526389639988338,1994,1424,511
1.2553311779993237,1951,1408,524
1.2580229750001308,1931,1360,496
1.2607143969999015,1953,1365,511
1.2634045269987837,2183,1467,567
1.2660964489987236,2181,1485,566
1.2687869129986211,2108,1520,590
1.271478375998413,2021,1456,544
1.2741691729988815,1968,1414,523
1.2769075539999903,1939,1386,508
1.2796085169993603,1927,1328,476
1.282304522999766,2123,1448,560
1.2849989859987545,2203,1487,560
1.28769390799971,2144,1515,576
1.2903880389985716,2064,1509,573
1.2930793359992094,1988,1424,527
1.2957734239989804,1950,1407,527
1.2984688879987516,1933,1355,494
1.3011610599987762,2018,1396,537
1.3038572739988012,2245,1493,571
1.3065523209988896,2223,1519,575
1.3092472839998663,2128,1554,596
1.311945288998686,2031,1469,539
1.3146420029988803,1972,1422,529
1.3173363419991801,1936,1392,510
1.320032846999311,1921,1339,493
1.3227283519991033,2101,1447,565
1.3254198989998258,2139,1466,560
1.3281138629990892,2085,1490,576
1.3308094099993468,2018,1468,554
1.3335392899989529,1968,1407,511
1.3362465459995292,1939,1392,511
1.3389408429993637,1933,1337,489
1.3416323900000862,2064,1410,541
1.3443229779986723,2176,1472,563
1.3470158999989508,2138,1489,564
1.3497101969987852,2063,1520,590
1.3524065359997621,1997,1424,511
1.3551036239987297,1953,1405,511
1.357794670999283,1933,1364,497
1.360489217999202,1934,1345,500
1.3631844319988886,2160,1456,560
1.3658761869992304,2171,1477,560
1.3685710259996995,2105,1509,579
1.3712662809994072,2028,1461,543
1.373961410999982,1973,1410,523
1.3766557919989282,1939,1389,511
1.3793501719992491,1929,1332,481
1.3820411359993159,2101,1424,557
1.3847354329991504,2202,1485,563
1.3874287299986463,2153,1507,576
1.3901214019988402,2065,1520,581
1.3928152399985265,1997,1424,523
1.3955119959991862,1952,1408,527
1.3982321259991295,1933,1360,495
1.4009263399984775,1966,1375,511
1.4036224279989256,2169,1461,562
1.406323141998655,2160,1483,563
1.4090188549998857,2089,1515,585
1.4117232769986003,2014,1449,537
1.4144186159992387,1964,1407,523
1.4171114129985654,1936,1379,511
1.4198053769996477,1927,1325,479
1.4224990899983823,2107,1440,562
1.4251900119998027,2157,1469,561
1.4278846839988546,2105,1491,571
1.4305758149985195,2030,1487,560
1.4332682369986287,1978,1410,511
1.4359623249983997,1945,1395,523
1.4386563719999685,1927,1345,493
1.4413550019999093,2017,1395,532
1.4440512159999344,2174,1465,560
1.4467483049993461,2146,1485,560
1.449440059999688,2073,1519,587
1.4521332739986974,1999,1434,528
1.4548275709985319,1957,1405,522
1.4575197839985776,1936,1369,505
1.4602137059991946,1916,1323,480
1.4629082109986484,2112,1440,560
1.465599632998419,2133,1458,555
1.4682931389997975,2085,1488,576
1.4709910609999497,2018,1460,547
1.473683648999213,1968,1404,511
1.4763783629987302,1943,1389,511
1.4790702020000026,1925,1333,483
1.481761123999604,2033,1404,538
1.4844561709996924,2138,1456,559
1.487149883998427,2109,1475,561
1.4898415560001013,2039,1504,581
1.4925347699991107,1985,1410,510
1.4952304829985223,1952,1393,527
1.4979217799991602,1935,1357,499
1.500614285998381,1936,1346,503
1.5033094579994213,2143,1449,560
1.5060017959985998,2151,1471,551
1.5086946349983918,2093,1502,577
1.5113900569995167,2021,1455,540
1.514079728998695,1968,1408,511
1.5167735669983813,1943,1387,511
1.5194668639996962,1931,1331,480
1.5221568279994244,2022,1409,545
1.5248767499997484,2074,1435,549
1.5275724639996042,2034,1451,556
1.5302917609988071,1990,1465,560
1.5329859329995088,1955,1383,499
1.53570727099941,1936,1375,507
1.5384109019996686,1929,1335,487
1.5411039069986145,1968,1360,511
1.543795745999887,2122,1439,554
1.5464883759996155,2106,1456,554
1.5491802559990901,2055,1489,576
1.5518700529992202,1994,1424,528
1.5545636829992873,1959,1392,510
1.557254022000052,1936,1365,499
1.5599467769989133,1929,1316,475
1.5626409079995938,2097,1431,558
1.5653364959998726,2140,1457,555
1.568034917998375,2091,1485,566
1.570728381999288,2023,1472,558
1.573420011998678,1974,1406,511
1.5761151009992318,1940,1392,511
1.5788094809995528,1931,1342,492
1.5815004029991542,2025,1395,536
1.5841907419999188,2167,1465,560
1.586886371998844,2139,1483,564
1.5895783359992492,2065,1515,589
1.5922727159995702,1997,1429,526
1.5949669299989182,1961,1405,511
1.5976592679999158,1938,1369,501
1.6003557739986718,1928,1334,494
1.6030507790001138,2084,1427,557
1.605749618000118,2111,1450,550
1.6084442060000583,2063,1477,568
1.6111380029997235,1999,1445,539
1.6138285079996422,1967,1392,510
1.6165218049991381,1939,1379,510
1.6192159769998398,1933,1328,480
1.6219075239987433,2020,1394,535
1.6246040299993183,2096,1439,551
1.6273035349986458,2071,1457,559
1.6299989149993053,2015,1488,573
1.6326900459989702,1974,1395,511
1.6353829679992486,1949,1389,511
1.6380762230000983,1935,1347,495
1.6407678529994882,1937,1343,500
1.6434608999988995,2087,1430,550
1.646152904999326,2091,1440,546
1.648874201999206,2041,1473,572
1.6515685409995058,1989,1424,529
1.6542835049986024,1962,1389,511
1.6569763429997693,1937,1367,503
1.6596713899998576,1927,1316,475
1.6623692289995233,2047,1411,546
1.665062483998554,2101,1439,546
1.6677551149987266,2064,1462,560
1.6704480779990263,2007,1466,558
1.6731389579999814,1968,1392,503
1.6758333799989487,1943,1381,507
1.6785263859983388,1932,1340,485
1.6812180990000343,1973,1370,526
1.6839111049994244,2126,1443,556
1.686602817999301,2115,1459,558
1.6892925319989445,2060,1495,582
1.6919873709994135,1999,1428,528
1.694682458999523,1957,1393,511
1.6973750889992516,1936,1367,502
1.7000688029984303,1930,1319,481
1.7027608079988568,2059,1423,558
1.705452604999664,2098,1441,553
1.7081476109997311,2057,1469,567
1.7108420329986984,2000,1439,533
1.7135537049998675,1962,1379,496
1.7162594179990265,1937,1371,501
1.7189517569986492,1927,1326,471
1.7216423869995197,2056,1397,528
1.7243355589998828,2223,1474,558
1.7270277729985537,2191,1503,562
1.7297214029986208,2096,1533,589
1.7324160749994917,2012,1441,523
1.735108663999199,1959,1411,511
1.7378352519990585,1934,1371,496
1.740538258000015,1924,1342,490
1.7432310549993417,2159,1456,559
1.7459218519998103,2179,1481,555
1.7486150649983756,2111,1511,576
1.7513081540000712,2030,1467,543
1.7539997839994612,1973,1410,510
1.7566935399991053,1938,1392,505
1.7593888779992994,1923,1334,475
1.7620900499987329,2095,1424,541
1.764829096999165,2207,1485,559
1.7675406859998475,2160,1507,563
1.7702656080000452,2073,1521,577
1.7729586969999218,1995,1424,511
1.7756507439989946,1951,1408,511
1.7783422069987864,1929,1360,487
1.7810301289991912,1957,1366,507
1.7837212179983908,2215,1473,560
1.7864098059999378,2210,1499,560
1.789101436999772,2125,1531,583
1.7917930249986966,2031,1467,535
1.7944829469997785,1970,1421,511
1.7971710359997815,1935,1388,506
1.7998620829985157,1920,1328,470
1.8025509629987937,2119,1446,560
1.8052398429990717,2188,1479,558
1.8079279319990746,2128,1506,571
1.8106169369984855,2045,1499,563
1.8133101089988486,1981,1421,511
1.815999947999444,1940,1401,511
1.818688370000018,1925,1347,484
1.8213857499995356,2004,1392,526
1.824076213999433,2205,1473,559
1.8267709269985062,2181,1495,561
1.8294579739995243,2096,1527,585
1.8321598959992116,2011,1450,528
1.8348556929995539,1957,1409,511
1.8375451149986475,1933,1376,497
1.8402295369996864,1919,1327,481
1.842918500999076,2159,1456,559
1.8456077979990368,2205,1487,558
1.8482985949995054,2135,1518,576
1.8509891419998894,2046,1488,549
1.8536805219991948,1978,1421,511
1.8563699859987537,1936,1397,511
1.8590594909983338,1919,1339,482
1.8617489959997329,2035,1407,530
1.864439417999165,2174,1471,555
1.867128881998724,2135,1488,560
1.869816720000017,2066,1519,582
1.8725049759996182,1994,1424,511
1.875193688998479,1950,1398,511
1.8778815699988627,1926,1361,494
1.880571282999881,1917,1333,485
1.8832609549990593,2149,1450,554
1.8859522939983435,2173,1473,553
1.8886434239993832,2110,1505,571
1.8913335130000632,2027,1463,537
1.8940201429995795,1968,1408,503
1.8967081069986307,1934,1387,503
1.8993959039999027,1919,1329,470
1.9020825759998843,2041,1407,531
1.9047715389988298,2135,1456,548
1.9074605030000384,2102,1475,557
1.9101484659986454,2032,1499,570
1.9128686799995194,1976,1406,498
1.9155598519992054,1939,1392,506
1.918274816000121,1921,1348,485
1.9209664039990457,1936,1349,496
1.9236573679991125,2177,1456,558
1.9263465399999404,2181,1479,553
1.9290332539985684,2103,1510,576
1.9317335919986363,2017,1454,533
1.9344293479989574,1963,1407,498
1.9371177699995314,1924,1382,499
1.940293734000079,1920,1321,465
1.9430235729996639,2094,1429,553
1.945748536998508,2163,1465,557
1.9484765419983887,2101,1495,571
1.9512089639993064,2020,1463,543
1.9539375109998218,1968,1405,506
1.9566665999991528,1935,1387,504
1.959396354999626,1919,1328,473
1.96212560999993,2063,1408,531
1.9648888659994554,2173,1468,551
1.9676199959994847,2128,1487,560
1.9703486269991117,2046,1505,570
1.9730740069990134,1981,1412,502
1.9758014290000574,1938,1395,508
1.9785300589992403,1920,1347,484
1.9812586899988673,1968,1363,511
1.9839876949990867,2202,1467,560
1.9867146169999614,2189,1489,560
1.9894399139993766,2102,1523,581
1.9921671279989823,2010,1453,528
1.9948945919986727,1956,1408,511
1.9976188049986376,1924,1373,496
2.000348685998688,1914,1326,479
2.003125982999336,2133,1446,556
2.0058807379991777,2175,1473,551
2.008611076998932,2107,1503,571
2.0113397069999337,2022,1468,541
2.014074170998356,1965,1408,506
2.0168056759994215,1929,1387,503
2.0195351819984353,1915,1328,467
2.02229147899925,2089,1420,539
2.0250200669997866,2198,1477,555
2.027749322998716,2146,1502,563
2.0304765370001405,2060,1511,566
2.03325679199952,1982,1421,505
2.0360801729984814,1938,1399,507
2.0388491779995093,1918,1345,483
2.0415888499992434,1983,1393,535
2.0443257719998655,2127,1456,559
2.047059693999472,2107,1468,559
2.0497951580000517,2038,1499,582
2.0525327469986223,1979,1416,511
2.055270043998462,1927,1378,505
2.058001590999993,1921,1355,496
2.060745512999347,1920,1328,494
2.063498642999548,2096,1427,551
2.0662762739993923,2112,1446,550
2.0690178209988517,2059,1479,573
2.071758158999728,1995,1425,533
2.0758672089996253,1947,1390,511
2.0786183399995934,1925,1367,506
2.0813552199997503,1959,1355,511
2.0840930999984266,2129,1434,557
2.08682848099852,2123,1456,549
2.0895618189988454,2059,1490,575
2.0922996579993196,1987,1419,525
2.0950357469992014,1947,1389,506
2.0977680439991673,1927,1360,500
2.1005050909989222,1920,1325,483
2.1032447629986564,2079,1424,554
2.1059816849992785,2104,1441,548
2.1087191489987163,2054,1473,570
2.1114556539996556,1995,1434,539
2.114243659998465,1952,1387,507
2.1169831229999545,1931,1369,506
2.1197207539989904,1918,1308,465
2.1224574679999932,2030,1404,539
2.1251928479996423,2083,1433,547
2.1279308119992493,2056,1453,559
2.130667399998856,2000,1462,560
2.1334060720000707,1958,1386,503
2.13614436899843,1936,1374,507
2.138878707999538,1919,1329,482
2.1421506729984685,1979,1370,511
2.14487663699947,2097,1430,555
2.147568891999981,2065,1445,557
2.150288938999438,2011,1472,566
2.1529816940001183,1967,1389,502
2.1556745749985566,1939,1378,510
2.158369662998666,1923,1338,490
2.1610555019997264,1936,1343,501
2.1637554239987367,2087,1424,546
2.1664569709992065,2091,1440,544
2.1691505589988083,2035,1472,567
2.1718456059988966,1986,1418,528
2.174539736999577,1951,1381,509
2.177231824998671,1932,1362,503
2.1799259969993727,1921,1313,471
2.182619668999905,2069,1418,548
2.18531050799902,2123,1450,554
2.1880435129987745,2082,1472,561
2.1907565599994996,2016,1476,560
2.1934532319992286,1969,1398,507
2.1961517379986617,1936,1387,511
2.1988502009990043,1927,1337,489
2.2015437059999385,1955,1365,511
2.2042374199991173,2043,1419,546
2.2069330919985077,2032,1424,542
2.2096240969985956,1992,1459,567
2.21231789400008,1957,1391,507
2.215027899999768,1934,1367,503
2.217719987998862,1923,1344,494
2.220413909999479,1919,1307,478
2.2231074159990385,2090,1421,551
2.2258020879999094,2121,1443,546
2.2284986759987078,2071,1473,566
2.231194431999029,2011,1454,545
2.233889269999054,1965,1392,509
2.236582441999417,1937,1381,506
2.2392761139999493,1924,1328,479
2.241970577999382,2014,1393,529
2.244662499999322,2118,1445,554
2.247354587998416,2093,1459,558
2.250047009998525,2029,1490,580
2.252740473999438,1974,1401,511
2.2554351879989554,1947,1390,511
2.258126483999149,1923,1351,496
2.2608286149989,1925,1334,498
2.2635250369985442,2103,1428,556
2.2662462089992914,2112,1450,549
2.2689394219996757,2061,1481,574
2.2716357609988336,2000,1434,530
2.2743316830001277,1957,1392,511
2.277023812999687,1936,1371,503
2.279718484998739,1921,1318,475
2.282411615999081,2034,1406,541
2.2851010379999934,2112,1443,551
2.287795792999532,2079,1466,561
2.290489589999197,2016,1479,570
2.2931817199987563,1968,1393,507
2.295879391998824,1940,1385,511
2.298575021999568,1929,1344,495
2.301266777998535,1956,1360,511
2.3039618249986233,2160,1451,556
2.306654787998923,2157,1473,559
2.3093481269988843,2081,1509,585
2.3120426739988034,2007,1439,533
2.3147361789997376,1961,1403,511
2.317427850999593,1936,1374,507
2.320131689999471,1915,1321,477
2.3228321529986715,2095,1433,559
2.3255286999992677,2146,1459,558
2.3282276639984048,2096,1488,566
2.3309228779999103,2030,1478,560
2.333622882999407,1970,1401,511
2.336314054999093,1939,1390,525
2.339003518998652,1926,1338,489
2.3417293570000766,1984,1383,531
2.3444389039996167,2099,1439,555
2.347135742998944,2080,1451,555
2.349827372998334,2028,1487,578
2.3525207949987816,1981,1407,511
2.355214758999864,1947,1387,511
2.3579083059994446,1933,1357,497
2.360603518998687,1920,1326,491
2.363297899999452,2113,1436,557
2.365988571998969,2135,1456,553
2.3686814939992473,2083,1487,573
2.3713757489986165,2010,1456,550
2.3740739209988533,1967,1397,511
2.376769800999682,1936,1386,511
2.379465097999855,1924,1328,484
2.382156894998843,2038,1406,543
2.384885775998555,2143,1459,560
2.3875814479997644,2110,1477,563
2.3902782859986473,2039,1503,581
2.3929729999999836,1983,1409,507
2.3956675469999027,1945,1393,511
2.3983622189989546,1930,1355,496
2.401053723999212,1933,1347,502
2.4037474379983905,2114,1438,560
2.406441776000065,2117,1456,551
2.4091326979996666,2064,1488,576
2.4118261200001143,1999,1431,534
2.4145196259996737,1959,1392,511
2.4172139639995294,1935,1374,508
2.419907093999427,1923,1318,476
2.4226067250001506,2096,1425,549
2.4252996049999638,2174,1469,559
2.4279930269985925,2125,1494,566
2.430686365998554,2045,1498,571
2.433377538000059,1983,1413,511
2.4360726679988147,1947,1398,523
2.4387636729989026,1931,1351,494
2.441458261999287,1966,1372,524
2.444153100999756,2121,1449,558
2.446847188999527,2111,1460,555
2.449537443999361,2055,1492,577
2.4522266999993008,1996,1425,528
2.454922829998395,1956,1392,511
2.457615793999139,1935,1365,503
2.460310048998508,1925,1318,481
2.463003012999252,2093,1430,556
2.4656932259986206,2134,1456,555
2.4683862319998298,2091,1485,569
2.47110086199973,2017,1471,557
2.473816033998446,1969,1403,511
2.476510705999317,1941,1391,523
2.479205085999638,1913,1328,474
2.4818974249992607,2018,1394,535
2.484588304998397,2151,1457,560
2.4872806439998385,2125,1477,564
2.489973607000138,2059,1510,583
2.4926634459989145,1994,1423,523
2.4953566179992777,1953,1399,511
2.4980471229991963,1930,1360,496
2.5007396699984383,1927,1337,496
2.5034355919997324,2140,1451,561
2.5061286389991437,2163,1471,561
2.508834810998451,2098,1502,581
2.511529190998772,2026,1465,551
2.5142534469996463,1971,1408,511
2.5169495350000943,1938,1391,511
2.5196445409983426,1926,1331,484
2.5223385039989807,2053,1413,545
2.5250291349984764,2145,1456,558
2.5277210979984375,2111,1481,564
2.5304137699986313,2043,1504,578
2.533104400999946,1981,1410,511
2.5357996139991883,1951,1395,511
2.5384916189996147,1932,1354,494
2.5411814999988565,1945,1360,511
2.5439150879992667,2160,1455,560
2.5466204269996524,2162,1476,561
2.5493129739988944,2096,1511,585
2.5520047289992362,2018,1451,535
2.55470223500015,1968,1407,523
2.5573930319987994,1936,1382,510
2.5600858699999662,1926,1327,479
2.5627790839989757,2110,1438,560
2.565473048000058,2181,1475,560
2.568170010999893,2127,1501,572
2.5708640579996427,2045,1495,565
2.5735551469988422,1986,1417,511
2.576247359998888,1950,1401,525
2.578940823999801,1931,1351,487
2.581634870999551,1999,1389,533
2.5843297929986875,2184,1472,562
2.587024422999093,2165,1488,563
2.589714054000069,2090,1521,590
2.5924064759983594,2011,1446,533
2.595098230998701,1959,1408,526
2.5977885689990217,1936,1376,508
2.6004814079988137,1923,1329,487
2.6031730380000226,2128,1451,563
2.605863293998482,2173,1473,559
2.608557673998803,2114,1502,576
2.6112544709994836,2032,1479,557
2.6139486849988316,1979,1414,511
2.616644939998878,1943,1396,511
2.6193384869984584,1930,1342,490
2.622029616999498,2061,1408,542
2.6247237059997133,2223,1487,565
2.627421377999781,2183,1511,574
2.630113840999911,2090,1535,599
2.632805846998963,2012,1444,529
2.635509144000025,1962,1417,531
2.6382286909993127,1920,1361,496
2.6409229040000355,1927,1346,499
2.6436148259999754,2158,1456,565
2.64630912299981,2178,1483,560
2.6490008370001306,2110,1515,583
2.651692841998738,2032,1467,544
2.6543842639985087,1973,1415,528
2.657074435999675,1941,1392,511
2.6597647329999745,1927,1337,483
2.6624555719990894,2063,1418,553
2.6651462439986062,2145,1466,560
2.6678399569991598,2108,1485,563
2.670534795999629,2037,1499,576
2.6732268429987016,1984,1409,511
2.6759212229990226,1947,1395,526
2.6786188119986036,1934,1355,496
2.681311274998734,1947,1361,511
2.6840061559996684,2165,1456,560
2.686699578000116,2170,1478,560
2.6893901659987023,2099,1517,585
2.6920857969998906,2020,1454,540
2.69477871899835,1969,1408,523
2.6974698069989245,1936,1383,511
2.7001625209995836,1929,1328,481
2.7028546929996082,2093,1433,560
2.7055938229987078,2153,1465,559
2.7083140369995817,2103,1489,573
2.7132194219993835,2033,1487,563
2.715930134998416,1949,1398,524
2.718625098999837,1933,1354,496
2.7213153960001364,1945,1360,511
2.7240064429988706,2127,1443,557
2.726695697998366,2126,1459,555
2.729384536998623,2064,1491,576
2.7320742499996413,2004,1431,530
2.7347625469992636,1957,1393,511
2.737450385999182,1937,1375,506
2.740141849999418,1926,1323,475
2.742833646998406,2080,1426,556
2.745564401999218,2146,1459,555
2.748256990998925,2107,1488,570
2.7509503289984423,2032,1487,561
2.753641751000032,1979,1407,509
2.756330172998787,1947,1393,511
2.7590218869991077,1931,1345,486
2.761708808999174,1975,1378,526
2.7643976059989654,2105,1441,555
2.767088736000005,2096,1456,556
2.7697764079985063,2039,1488,578
2.772464955000032,1984,1417,526
2.7751537519998237,1953,1390,507
2.777844214999277,1936,1360,499
2.7805365539988998,1927,1322,484
2.7832268089987338,2096,1434,560
2.7859144399990328,2134,1456,556
2.7886036949985282,2089,1484,570
2.791291449999335,2018,1463,551
2.7939775389986607,1969,1404,509
2.796667085998706,1945,1391,511
2.7993552579991956,1930,1335,484
2.8020435129983525,1988,1389,531
2.804731267999159,2099,1439,556
2.8074223149997124,2081,1455,556
2.8101118209997367,2016,1488,578
2.8128035760000785,1981,1403,511
2.815491914998347,1947,1388,511
2.8181797950001055,1935,1355,497
2.820902257999478,1925,1331,496
2.8235933050000313,2064,1424,553
2.8262831019983423,2083,1435,546
2.8289707329986413,2038,1467,561
2.831660320998708,1993,1430,535
2.8343532849994517,1958,1388,507
2.8370419570001104,1936,1366,509
2.839770212000076,1931,1324,479
2.8424636339987046,2017,1394,542
2.8451530980000825,2087,1433,550
2.8478409359995567,2059,1453,558
2.850530775000152,2010,1475,563
2.8532217389984,1969,1391,501
2.8559120769987203,1945,1382,511
2.8587580829989747,1933,1345,494
2.861454796999169,1943,1351,510
2.8641481769991515,2145,1445,559
2.866839306998372,2135,1462,555
2.8695270209991577,2079,1501,577
2.8722186089999013,2010,1437,529
2.8749082399990584,1968,1401,511
2.877595994999865,1939,1376,506
2.880285458999424,1934,1326,471
2.8829725469986442,2071,1428,555
2.8856589689985412,2121,1454,556
2.8883469749998767,2083,1477,566
2.8910349379984837,2023,1469,559
2.8937222349995864,1975,1403,510
2.8964119069987646,1950,1392,511
2.899101786999381,1932,1345,491
2.9017890009999974,1979,1381,528
2.9044811309995566,2112,1447,557
2.9071739279988833,2096,1457,555
2.9098626839986537,2034,1490,577
2.9125536470000952,1984,1415,523
2.9152444020000985,1954,1392,511
2.9179321989995515,1936,1362,497
2.920618995998666,1925,1326,483
2.923307376999219,2096,1433,560
2.925993839999137,2134,1456,551
2.928681511999457,2082,1485,570
2.931369392999841,2020,1459,549
2.9340560639993782,1971,1398,511
2.936743319998641,1943,1388,511
2.939433157998792,1935,1331,483
2.94212232999962,1994,1394,530
2.9448105439987557,2092,1439,552
2.947536757999842,2075,1455,558
2.950260513000103,2022,1488,577
2.952951851999387,1981,1402,510
2.9556415239985654,1950,1386,511
2.9583289039983356,1934,1353,496
2.9610160759984865,1929,1334,496
2.9637040389989124,2090,1427,554
2.9663917109992326,2107,1447,547
2.9690805499994894,2059,1475,571
2.97177167999871,2000,1437,531
2.9744601439997496,1961,1392,510
2.977147857998716,1936,1376,510
2.9798352379984863,1930,1327,478
2.9825320769996324,2052,1407,543
2.985219997999593,2129,1453,556
2.98790883699985,2096,1472,565
2.9905952169992815,2034,1491,577
2.9932817640001304,1981,1405,511
2.995969352999964,1949,1394,511
2.998656982999819,1933,1355,496
3.0013455299995258,1936,1354,510
3.0040773269993224,2075,1424,551
3.0067936239993287,2077,1442,544
3.00948271299967,2032,1473,571
3.0121723009997368,1983,1418,528
3.0148624729990843,1957,1382,511
3.0175506449995737,1938,1362,501
3.0202381089984556,1930,1314,474
3.0229268639996008,2077,1414,558
3.025613744999646,2131,1455,554
3.028302041999268,2096,1479,566
3.030989963999673,2030,1479,562
3.0336807599996973,1976,1404,511
3.0363696409986005,1945,1393,511
3.039057395999407,1935,1344,485
3.0417536509994534,1984,1374,526
3.044477322999228,2167,1463,560
3.047176619998936,2159,1483,560
3.049866375999045,2087,1519,591
3.0525625059999584,2011,1439,531
3.0552574699995603,1967,1408,526
3.0579489749998174,1937,1375,507
3.0606384389993764,1929,1329,490
3.0633268599995063,2103,1442,560
3.0660177409990865,2141,1464,558
3.0687124539999786,2093,1490,576
3.0714052929997706,2026,1471,553
3.074093631999858,1976,1401,511
3.076782761998402,1943,1390,511
3.0794726009989972,1931,1337,487
3.082160855999973,2005,1394,535
3.0848883609996847,2117,1448,557
3.0875805329997092,2098,1464,560
3.090291663998869,2032,1494,582
3.0929815849995066,1984,1408,507
3.095671715998833,1953,1391,511
3.098362428998371,1936,1357,497
3.1010503099987545,1931,1335,497
3.1037390229994344,2111,1435,556
3.1064280699993105,2125,1455,552
3.1091144509991864,2064,1487,574
3.1118004139989353,2007,1446,542
3.1144903779986635,1968,1397,511
3.1171782159999566,1936,1382,511
3.1198671799993463,1930,1328,481
3.1225548940001318,2061,1411,546
3.1252424819995213,2149,1462,561
3.1279306129999895,2110,1483,567
3.13062090999847,2038,1503,576
3.1333109979987057,1987,1409,509
3.136001877999661,1955,1402,511
3.138690633999431,1934,1359,494
3.1413786389985034,1940,1358,509
3.1440678529997967,2143,1442,557
3.1467549829994823,2149,1472,560
3.149477279999701,2089,1506,580
3.152168034999704,2011,1450,535
3.1548560409992206,1965,1403,523
3.1575422959995194,1941,1379,508
3.1602299259993742,1933,1328,478
3.1629179309984465,2090,1431,556
3.16560501999993,2149,1467,558
3.168292983998981,2106,1489,572
3.1709804059992166,2032,1488,562
3.1736671189992194,1982,1409,511
3.1763533749999624,1951,1398,526
3.179043920999902,1933,1347,493
3.1817308019999473,1967,1375,526
3.1844185989994003,2107,1442,560
3.1871058540000377,2090,1456,557
3.1897936089990253,2042,1487,577
3.1924816149985418,1991,1423,527
3.195170827999391,1955,1391,511
3.1978596249991824,1936,1362,498
3.2005485469999257,1934,1319,481
3.203237136000098,2097,1434,560
3.205923599000016,2139,1457,556
3.2086111049993633,2095,1487,570
3.2112996929990913,2028,1471,559
3.2139851989995805,1975,1406,511
3.2166731209999853,1943,1392,511
3.2193615839987615,1931,1342,483
3.2220467979987006,2000,1391,530
3.2247348450000572,2119,1451,555
3.2274243499996373,2106,1465,557
3.230113021998477,2032,1498,580
3.2328009019984165,1987,1413,511
3.235487823998483,1956,1392,511
3.2381755799997336,1936,1360,500
3.240932167998835,1931,1329,487
3.243625131999579,2074,1429,556
3.2463137619997724,2091,1431,543
3.2490018919997965,2047,1472,571
3.2516911889997573,2000,1440,543
3.2543769029998657,1963,1392,510
3.257064907998938,1938,1376,509
3.259751913999935,1933,1328,477
3.262441126998965,2034,1402,533
3.265126590998989,2137,1456,555
3.267814137998357,2110,1472,560
3.2705007679996925,2045,1505,582
3.2731874820001394,1987,1411,511
3.2758765700000367,1953,1393,511
3.2785707839993847,1935,1358,495
3.281262788999811,1933,1345,501
3.283953627998926,2109,1438,550
3.286643424999056,2114,1455,548
3.2893313049989956,2066,1488,574
3.2920223099990835,2001,1437,529
3.294709398998748,1967,1396,509
3.2973955709985603,1936,1377,507
3.3000842849996843,1931,1327,478
3.3027708729987353,2078,1424,550
3.30545696199988,2166,1468,559
3.308144425998762,2127,1490,567
3.310831763999886,2053,1504,576
3.3135168939988944,1992,1415,511
3.316203524998855,1955,1402,525
3.318891946999429,1936,1358,493
3.3215794939987973,1952,1366,511
3.3242692069998157,2141,1455,560
3.3269560879998608,2141,1472,549
3.329641467998954,2075,1504,580
3.3323290150001412,2009,1442,537
3.3350173119997635,1967,1405,511
3.3377041919993644,1937,1377,509
3.340391030998944,1927,1323,478
3.3430785780001315,2090,1433,560
3.3457657499984634,2142,1462,556
3.348452587999418,2096,1481,565
3.3516239279997535,2030,1482,561
3.354357057998641,1981,1408,523
3.357085562998691,1943,1390,511
3.3598121519989945,1931,1335,480
3.3625374079983885,2064,1412,542
3.3652607049989456,2177,1471,560
3.3679856679991644,2139,1493,565
3.3707443399998738,2064,1520,582
3.373470095999437,1995,1420,511
3.3761971009989793,1952,1405,525
3.378924773000108,1937,1360,496
3.381650486999206,1957,1365,511
3.384377033999044,2143,1453,561
3.387106288999348,2133,1466,559
3.389832294998996,2070,1503,580
3.3925605499989615,2002,1438,531
3.3952882639987365,1963,1402,511
3.3980150609986595,1936,1374,496
3.4007418579985824,1929,1327,483
3.403470904999267,2112,1442,559
3.406245451998984,2147,1466,559
3.4089757069996267,2100,1493,576
3.411740045999977,2023,1466,549
3.414476467998611,1971,1408,511
3.4172050569995918,1943,1391,511
3.41993585399905,1935,1333,481
3.422663567998825,2042,1409,543
3.425388572999509,2131,1457,555
3.42811474500013,2103,1477,565
3.4308416669991857,2035,1495,576
3.433565796998664,1982,1406,511
3.4362927610000042,1951,1393,511
3.439022849999674,1935,1351,487
3.4417466879986023,1968,1371,511
3.4444761519989697,2161,1459,560
3.4472009490000346,2151,1474,560
3.449926620998667,2081,1510,581
3.4526508769995417,2010,1442,535
3.4553770899983647,1966,1406,511
3.458102886999768,1936,1370,503
3.4608286429993314,1929,1330,491
3.4635546059998887,2101,1442,561
3.466313236998758,2135,1461,559
3.4690421169998444,2083,1489,575
3.471772330998647,2017,1457,547
3.474500835998697,1968,1405,511
3.4772278829987044,1942,1389,511
3.4799563889991987,1931,1331,482
3.482687226998678,2026,1405,539
3.4854137739985163,2105,1445,553
3.4881421549998777,2079,1463,560
3.490868576998764,2021,1487,566
3.493593373999829,1971,1398,506
3.4963219619985466,1943,1386,511
3.4990478429990617,1933,1347,493
3.5017747649999365,1959,1363,511
3.504502394998781,2123,1446,557
3.507230316999994,2116,1461,555
3.509956488998796,2062,1494,579
3.512683744998867,1996,1426,528
3.5154124999990017,1961,1394,511
3.518141004999052,1936,1364,504
3.520907010999508,1931,1328,487
3.5236368079986278,2111,1440,560
3.526365062998593,2137,1456,557
3.5290906939990236,2086,1486,574
3.531817865999983,2018,1456,545
3.5345457039984467,1968,1403,511
3.5372704599994904,1945,1385,511
3.5399965069991595,1933,1331,480
3.542722469999717,2058,1414,542
3.5454513509994285,2159,1466,559
3.5481812309990346,2117,1488,567
3.550906236998344,2054,1504,573
3.554119450998769,1987,1408,502
3.556814289999238,1954,1403,526
3.5595047119986702,1932,1344,486
3.562221549998867,2000,1386,527
3.5649191809989134,2148,1459,560
3.567608018998726,2127,1477,561
3.570297607999237,2058,1510,585
3.572984821999853,1996,1424,511
3.5756744939990313,1959,1400,523
3.5783649569984846,1936,1367,496
3.5810551710001164,1934,1337,495
3.583744133999062,2096,1437,560
3.5864317229988956,2112,1453,553
3.5891182699997444,2062,1483,573
3.5918062749988167,2003,1447,542
3.5944944889997714,1968,1393,511
3.597180868999203,1941,1381,511
3.5998689999996714,1930,1328,480
3.60255892099849,2063,1408,542
3.6052452179992542,2174,1467,560
3.607933889999913,2134,1489,565
3.610623687000043,2064,1520,586
3.6133104839991574,1997,1423,511
3.6159988649997103,1961,1404,524
3.618685702998846,1936,1362,496
3.62137412499942,1932,1351,502
3.624061630000142,2158,1455,563
3.62675555199894,2163,1477,557
3.6294428490000428,2101,1511,581
3.632131729998946,2025,1458,539
3.6348220679992664,1973,1409,525
3.6375109489999886,1943,1390,511
3.6401999539993994,1933,1331,483
3.642891542000143,2078,1427,553
3.64558008899985,2159,1470,559
3.648269760999028,2115,1490,572
3.6509566419990733,2043,1502,571
3.653644229998463,1987,1413,511
3.6563333609992696,1955,1401,526
3.659019658000034,1939,1355,495
3.6617072459994233,1959,1370,511
3.664397750999342,2128,1451,558
3.6670844229993236,2122,1462,551
3.66977134499939,2058,1492,576
3.6724581839989696,1993,1429,528
3.675150897999629,1952,1393,511
3.677838402998532,1936,1369,503
3.680528824999783,1929,1317,473
3.6832176219995745,2101,1434,560
3.6859058769987314,2161,1464,556
3.6885945069989248,2110,1489,574
3.6912819709996256,2034,1486,562
3.69396905999929,1982,1411,510
3.6966572729998006,1951,1397,511
3.6993465699997614,1936,1346,489
3.702033658999426,2000,1387,529
3.7047244559998944,2169,1465,560
3.7074131689987553,2153,1483,565
3.7101014659983775,2078,1519,589
3.712791304998973,2007,1440,529
3.7154781019999064,1967,1408,525
3.7181655659987882,1936,1376,507
3.7208910289991763,1927,1330,486
3.7235822009988624,2095,1439,559
3.726297164999778,2128,1456,554
3.7289882539989776,2082,1487,565
3.7316780089986423,2015,1459,549
3.734366721999322,1969,1404,511
3.737055685998712,1941,1385,511
3.7397466909987997,1935,1340,479
3.742435737998676,2032,1404,535
3.7451219519989536,2141,1457,559
3.747811956998703,2116,1477,560
3.7505036709990236,2059,1507,586
3.7531879679991107,1978,1406,502
3.7558798479985853,1955,1397,511
3.7585696449987154,1936,1360,500
3.76125785899967,1931,1344,501
3.76394653099851,2137,1447,561
3.766644160999931,2145,1462,560
3.7693380410000827,2086,1495,578
3.772031796999727,2015,1450,541
3.77472438499899,1969,1403,511
3.7774113489995216,1943,1388,510
3.7801000209983613,1927,1330,480
3.7827883589998237,2059,1413,547
3.7854746149987477,2133,1457,559
3.788162619999639,2101,1478,564
3.790852249998352,2034,1495,573
3.793538963998799,1983,1405,510
3.7962282609987597,1948,1393,511
3.7989155579998624,1936,1353,496
3.8016027300000133,1949,1358,511
3.8043013179994887,2125,1444,560
3.806990823999513,2125,1460,558
3.8096774959994946,2064,1495,578
3.8123674179987574,2000,1435,535
3.8150573399998393,1965,1394,511
3.8177455949989962,1937,1377,508
3.8204346839993377,1930,1323,478
3.8231239799988543,2081,1426,557
3.825812651999513,2146,1462,557
3.8285012830001506,2102,1485,566
3.831193287998758,2033,1488,565
3.8338827099996706,1982,1408,511
3.836574048998955,1949,1394,511
3.8392630119997193,1933,1348,491
3.8419498919993202,1984,1370,511
3.844638438999027,2126,1449,557
3.8473291949994746,2112,1465,559
3.8500166579997313,2058,1494,578
3.852703371998359,1996,1427,528
3.855393293999441,1958,1394,511
3.858076757998788,1937,1367,499
3.860765679999531,1929,1313,473
3.863453309999386,2165,1457,566
3.8661431900000025,2223,1490,566
3.8688600289988244,2155,1521,578
3.871550075999039,2064,1501,561
3.874264164000124,1991,1426,528
3.8769537109983503,1952,1408,528
3.879643632999432,1930,1351,491
3.8823335969991604,2025,1408,540
3.8850211439985287,2160,1465,564
3.88770944099997,2133,1486,564
3.890398028999698,2064,1518,590
3.8930863259993203,1997,1425,525
3.895774956999958,1959,1398,511
3.898464169998988,1938,1370,500
3.90115459199842,1931,1342,496
3.903842805999375,2128,1449,560
3.906534269999611,2155,1469,559
3.9092231079994235,2094,1499,576
3.911911154998961,2023,1461,546
3.9145997849991545,1969,1408,511
3.9172867069992208,1942,1391,511
3.919976962999499,1931,1335,482
3.922664800998973,2055,1411,541
3.9253508479996526,2165,1470,560
3.9280409369985136,2128,1487,568
3.9307302759989398,2063,1519,585
3.9334183639984985,1990,1419,511
3.9361078279998765,1948,1403,527
3.938796790998822,1936,1360,498
3.9414835879997554,1936,1353,506
3.9441723439995258,2160,1457,564
3.9468619740000577,2172,1481,562
3.9495495629998914,2106,1516,589
3.9531783200000064,2030,1459,545
3.9559218249996775,1973,1414,528
3.9586139139992156,1936,1374,506
3.9613058769991767,1930,1347,503
3.963996007998503,2145,1456,563
3.966685054998379,2171,1476,560
3.9693720179984666,2106,1510,581
3.9720606899991253,2032,1465,545
3.974747653999657,1973,1412,527
3.9774349089984753,1943,1392,511
3.980124330999388,1931,1335,483
3.98281262799901,2062,1419,548
3.985497507999753,2159,1469,561
3.988184388999798,2123,1490,567
3.9908713519998855,2057,1511,580
3.9935590239983867,1989,1418,511
3.996248278999701,1955,1403,511
3.9989377849997254,1936,1360,496
4.001623372998438,1946,1359,510
4.004355294999186,2146,1455,559
4.007071383999573,2150,1473,555
4.009760722999999,2084,1505,579
4.012450477999664,2010,1446,539
4.015139316999921,1968,1407,526
4.017825488999733,1936,1379,511
4.020513576999292,1930,1327,479
4.02320245699957,2096,1436,560
4.02588929599915,2163,1469,560
4.028581300999576,2115,1493,569
4.031269764998797,2037,1489,563
4.03395626999918,1984,1413,509
4.036644816998887,1950,1399,523
4.039332155998636,1934,1351,494
4.042019327998787,1980,1377,528
4.0447076659984305,2134,1456,558
4.047395462999702,2126,1472,560
4.050121218999266,2064,1505,585
4.05290605799928,2000,1435,528
4.055602687998544,1958,1399,511
4.058299817999796,1936,1367,503
4.060990031999609,1930,1329,489
4.0636772039997595,2080,1431,558
4.0663640839993604,2109,1449,551
4.069051548000061,2063,1472,566
4.0717389279998315,2003,1451,546
4.074426099999982,1968,1393,510
4.077112313998441,1938,1382,511
4.079801193998719,1934,1333,481
4.082488948999526,2015,1395,534
4.085177037999529,2133,1454,554
4.087866918000145,2113,1473,560
4.090553631998773,2047,1504,583
4.093240928999876,1991,1414,510
4.095931558998927,1952,1393,521
4.098621147999438,1934,1360,498
4.101307110999187,1930,1339,496
4.103995657998894,2117,1440,560
4.10668583000006,2135,1457,557
4.109373293998942,2081,1489,577
4.112062215999686,2015,1452,542
4.114750803999414,1970,1403,511
4.117440975998761,1941,1385,511
4.120131189998574,1929,1331,479
4.1228196949996345,2057,1411,544
4.125505949999933,2145,1458,560
4.128193580998413,2112,1479,567
4.130881585999305,2038,1502,576
4.1335681749988,1986,1409,509
4.13625797199893,1952,1395,511
4.138947143999758,1936,1357,493
4.141635814999972,1936,1354,511
4.144325236999066,2101,1437,556
4.147014242998921,2110,1455,551
4.1497077899985015,2057,1487,576
4.152397711999583,2000,1430,533
4.155088466999587,1961,1392,511
4.157814430998769,1939,1375,507
4.160504602999936,1930,1323,475
4.163194274999114,2087,1426,553
4.1658804879989475,2154,1465,555
4.168570492998697,2107,1488,566
4.171260956998594,2038,1489,563
4.173947128998407,1984,1411,507
4.176635300998896,1952,1397,525
4.17932288999873,1934,1349,495
4.182010769998669,1972,1374,511
4.184700608999265,2129,1453,558
4.1873893219999445,2122,1470,560
4.190076618999228,2064,1501,583
4.1927649159988505,1998,1431,528
4.1954527130001225,1958,1398,511
4.198140426999089,1939,1370,503
4.200863389998631,1929,1319,478
4.2035552709985495,2100,1438,561
4.206270233999021,2143,1461,554
4.208960156000103,2096,1488,565
4.2116495779991965,2026,1472,553
4.214338874999157,1979,1407,511
4.217027213999245,1946,1387,511
4.219715426999755,1932,1341,485
4.22240443299961,2015,1396,534
4.225091562999296,2145,1457,560
4.227781026998855,2128,1478,560
4.230467989998942,2061,1510,585
4.233153620998564,1998,1423,523
4.2358410429988,1962,1399,511
4.238528672998655,1937,1365,501
4.241214552999736,1926,1337,494
4.243901974999972,2135,1449,559
4.24659247999989,2167,1472,560
4.249281610998878,2106,1504,576
4.2519731579996005,2030,1470,548
4.254667788000006,1974,1412,523
4.257355667999946,1947,1392,511
4.2600432979998,1932,1338,482
4.262730970000121,2022,1406,540
4.2654166009997425,2112,1451,560
4.268106188999809,2078,1466,563
4.2707943609984795,2029,1497,577
4.273481866999646,1981,1405,506
4.2761688719983795,1949,1392,511
4.278864710999187,1936,1354,496
4.281557006999719,1936,1344,501
4.2842466789988976,2118,1438,558
4.286936600999979,2124,1456,553
4.289651231998505,2067,1488,574
4.292341611999291,2005,1439,530
4.295030741999653,1966,1393,511
4.29771662299936,1941,1378,508
4.300405669999236,1931,1327,474
4.303092341999218,2047,1417,552
4.305778721998649,2123,1452,555
4.308463684999879,2088,1472,567
4.311151981999501,2027,1485,570
4.313838112999292,1975,1401,510
4.316525700998682,1952,1392,511
4.3192127479997,1934,1347,495
4.321900086999449,1947,1360,511
4.324588341998606,2060,1423,548
4.327278180999201,2061,1434,546
4.3299640609984635,2016,1470,566
4.332652774999588,1979,1409,528
4.335341987998618,1950,1377,509
4.338027201998557,1937,1360,501
4.340715456999533,1930,1311,471
4.343405837998944,2074,1423,555
4.346094758999243,2121,1449,550
4.348783805999119,2082,1472,561
4.351472020000074,2025,1472,558
4.354160858998512,1971,1398,510
4.356884655999238,1942,1389,511
4.359574660998987,1936,1343,485
4.362286540999776,1997,1387,530
4.364977087998341,2135,1456,552
4.36766767699919,2118,1472,559
4.370357598998453,2056,1501,585
4.373055145999388,1995,1423,527
4.375748942999053,1955,1394,511
4.378438530999119,1937,1366,503
4.38112516199908,1927,1329,491
4.383815916999083,2101,1437,563
4.38650792199951,2128,1443,550
4.389196553000147,2080,1477,571
4.3918854749990714,2016,1454,546
4.394573937999667,1971,1395,510
4.397263068000029,1942,1386,511
4.39995394899961,1933,1332,478
4.40264295399902,2023,1395,535
4.405331708998347,2131,1453,556
4.408019964999767,2106,1468,560
4.410708094999791,2039,1502,582
4.413394516999688,1989,1409,511
4.41608172999986,1953,1393,511
4.418771110998932,1936,1359,497
4.421458615999654,1930,1342,497
4.424157037999976,2100,1435,557
4.4268467929996405,2115,1451,550
4.4295357989994955,2067,1485,573
4.432228428999224,2005,1441,538
4.434918183998889,1968,1396,511
4.437605272998553,1938,1381,511
4.440298819999953,1931,1328,479
4.442986657999427,2070,1419,546
4.445673913998689,2159,1466,560
4.4483634190000885,2119,1487,571
4.451054632998421,2055,1505,576
4.4537433049990796,1993,1418,511
4.456430143000034,1957,1402,526
4.459118523998768,1935,1360,496
4.461808278998433,1950,1362,511
4.464497408998795,2119,1445,557
4.467185456000152,2110,1451,543
4.469872919999034,2064,1491,576
4.472562382999968,2000,1435,530
4.475251971998659,1954,1390,510
4.477938893998726,1933,1371,505
4.480625940999744,1922,1318,475
4.483314945999155,2068,1423,553
4.486001784998734,2133,1455,555
4.488690581998526,2097,1478,567
4.49137791999965,2030,1482,565
4.4940665919984895,1978,1405,511
4.496756263999487,1953,1392,511
4.499445310999363,1933,1347,491
4.502133815998604,1980,1377,528
4.504824988000109,2128,1450,557
4.507517451998865,2115,1467,557
4.510233790999337,2061,1498,579
4.512924045999171,1999,1430,528
4.515613592999216,1958,1398,523
4.51830172299924,1941,1370,505
4.520989061998989,1933,1328,486
4.523677691999183,2087,1439,560
4.526369363999038,2127,1456,556
4.529057619000014,2085,1484,571
4.5317461249996995,2017,1469,550
4.534434462999343,1974,1402,510
4.537120176999451,1945,1391,511
4.53980964099901,1933,1342,487
4.5425020629991195,2003,1392,534
4.545188901000074,2112,1450,560
4.5478776559994,2094,1462,559
4.550565494999319,2032,1496,581
4.553253666999808,1984,1410,511
4.555941630998859,1955,1392,509
4.559111761998793,1936,1360,497
4.561844933999964,1932,1335,496
4.564578188999803,2130,1444,563
4.567304277999938,2130,1462,558
4.570029366999734,2071,1497,576
4.572757455000101,2003,1435,531
4.575486210998861,1963,1398,511
4.578251174998513,1939,1371,507
4.58098188799886,1932,1319,479
4.583711059998677,2096,1437,559
4.586440606999531,2135,1459,557
4.589168903999962,2085,1488,569
4.591900200999589,2021,1467,551
4.59462958199947,1970,1405,511
4.597356211999795,1947,1392,511
4.600085550999211,1935,1333,481
4.6028144729989435,2029,1401,534
4.6055409780001355,2129,1454,559
4.608269066999128,2103,1473,560
4.61099636399922,2032,1504,578
4.613756785998703,1982,1408,511
4.61652545799916,1951,1395,526
4.619275588998789,1934,1351,496
4.622017051999137,1954,1360,506
4.624760057999083,2087,1431,554
4.627502937999452,2083,1443,553
4.630268234999676,2032,1479,576
4.6330061569988175,1988,1418,525
4.635746078998636,1954,1386,511
4.638479960000041,1936,1359,496
4.641214881999986,1930,1325,487
4.6439529709987255,2098,1431,560
4.646696392999729,2127,1454,554
4.649430814999505,2080,1483,574
4.652171361998626,2003,1453,540
4.654910283999925,1968,1395,509
4.65764520599987,1940,1381,510
4.660377544998482,1931,1328,478
4.663110091998533,2057,1410,542
4.665842013999281,2142,1457,554
4.668573726999966,2106,1481,563
4.6713118579991715,2032,1490,569
4.674043237999285,1982,1405,509
4.676781576999929,1951,1393,523
4.679518331999134,1933,1343,486
4.682286587998533,1978,1376,525
4.6850255929985,2112,1445,557
4.68776401499963,2096,1457,555
4.690500186999998,2042,1491,579
4.693232483999964,1987,1413,511
4.695973822999804,1955,1392,511
4.698709369999051,1936,1360,500
4.701437749999968,1931,1333,494
4.704187255998477,2100,1437,558
4.706923718998951,2121,1453,550
4.709655390999615,2071,1487,573
4.712387854999179,2005,1443,538
4.7152253609983745,1965,1396,510
4.717986990999634,1939,1378,507
4.720762579998336,1934,1325,475
4.723535584998899,2060,1423,553
4.726318173999971,2115,1446,551
4.729051054999218,2073,1473,563
4.731781892998697,2014,1462,557
4.734511689999636,1969,1397,508
4.737237653998818,1943,1387,511
4.739964242999122,1935,1339,485
4.742691955998453,2019,1399,531
4.745417295000152,2131,1456,555
4.748146258998531,2107,1471,559
4.750874555998962,2037,1504,580
4.753600935999202,1985,1409,508
4.7563298999994,1951,1393,511
4.759595489998901,1936,1359,493
4.762300911999773,1939,1351,503
4.764994666998973,2162,1451,559
4.767684963999272,2146,1472,558
4.770373635999931,2080,1510,587
4.773061265999786,2009,1433,528
4.775748396999916,1967,1405,524
4.778438109999115,1939,1374,503
4.781124156999795,1930,1328,482
4.783812786999988,2128,1449,562
4.786500333999356,2169,1474,559
4.78918821499974,2112,1504,575
4.79187588700006,2034,1479,557
4.79456559999926,1981,1415,522
4.797254729999622,1948,1398,511
4.799943276999329,1935,1346,481
4.802632698998423,2017,1402,538
4.805320745999779,2128,1456,559
4.808009042999402,2112,1470,560
4.810697548999087,2041,1506,588
4.813386511999852,1987,1417,511
4.8160736429999815,1957,1394,511
4.818762188999244,1936,1361,497
4.821450069999628,1927,1338,496
4.8241385749988694,2070,1426,557
4.826829871999507,2086,1440,550
4.829517460999341,2041,1470,567
4.8322064240001055,1997,1434,539
4.834896845999538,1962,1387,510
4.837585101999139,1937,1377,509
4.840280856999016,1931,1328,479
4.84298236199902,2044,1407,535
4.845669866999742,2134,1455,555
4.848359663999872,2102,1474,562
4.851049960998353,2036,1498,576
4.853739049998694,1986,1409,510
4.856436971998846,1952,1393,511
4.859126310999272,1936,1357,496
4.861812649000058,1939,1349,505
4.864499778999743,2085,1429,554
4.867187034999006,2086,1441,549
4.869874123000045,2042,1476,573
4.8725595449996035,1991,1424,528
4.875247841999226,1957,1387,507
4.877932638999482,1940,1370,503
4.880619977999231,1932,1322,476
4.883306982999784,2086,1424,550
4.885994737998772,2153,1461,553
4.888683868999578,2112,1487,567
4.89137691599899,2035,1491,570
4.894064378999246,1986,1409,511
4.8967540099984035,1951,1396,511
4.899441847999697,1936,1351,493
4.902127603998451,1957,1367,511
4.904816899999787,2090,1434,556
4.907506113999261,2082,1447,552
4.910225077999712,2033,1483,577
4.912916749999567,1987,1424,528
4.915606712998851,1954,1390,511
4.918295927000145,1937,1363,500
4.920985015998667,1932,1313,478
4.9236766879985225,2083,1427,560
4.926366443000006,2127,1454,557
4.92905557299855,2082,1479,568
4.931744786999843,2017,1469,557
4.934433999998873,1973,1399,511
4.937120755999786,1942,1389,511
4.939808677998371,1934,1342,483
4.942496890998882,2005,1392,531
4.945184647000133,2137,1447,553
4.947873234999861,2128,1475,561
4.950561198998912,2065,1510,590
4.9532499959987035,2000,1427,525
4.955938708999383,1959,1401,523
4.9586271309999574,1936,1369,502
4.961349927998526,1929,1334,490
4.9640391419998195,2125,1450,560
4.966727772000013,2159,1471,560
4.969415527999445,2101,1499,578
4.972102699999596,2025,1467,551
4.97479349599962,1976,1408,511
4.9774815019991365,1945,1392,511
4.980168881998907,1934,1339,483
4.982857386999967,2027,1407,539
4.9855446009987645,2125,1457,557
4.988235105998683,2096,1473,560
4.990923194998686,2034,1502,581
4.993609116998414,1984,1409,511
4.996297538998988,1950,1394,511
4.998987293998653,1936,1358,494
5.001672923999649,1934,1343,496
5.004361012999652,2115,1440,557
5.007091017998391,2129,1458,554
5.00980481499937,2074,1491,575
5.012495611999839,2010,1443,536
5.015183367999271,1954,1389,502
5.017872039999929,1943,1382,510
5.020562711999446,1935,1329,481
5.023251175000041,2053,1414,546
5.025938929999029,2113,1447,545
5.028627143999984,2081,1470,560
5.031315815998823,2018,1482,566
5.034003237999059,1974,1395,506
5.03669336799976,1950,1390,511
5.039381164999213,1935,1348,495
5.042068461998497,1965,1364,511
5.0447580509990075,2162,1456,562
5.047446638998736,2160,1478,560
5.0501358109995635,2090,1514,584
5.0528642749995925,2016,1449,534
5.055559029999131,1968,1408,525
5.058324493998953,1938,1379,510
5.061056415999701,1934,1328,475
5.0637517549985205,2111,1447,560
5.066443884999899,2160,1472,560
5.06913105700005,2112,1497,576
5.0718186869999045,2038,1483,557
5.074509275998935,1982,1411,511
5.077198405999297,1951,1397,511
5.079888786998708,1934,1344,490
5.0825775839985,1995,1392,533
5.085265421999793,2109,1449,559
5.087953885999013,2093,1458,557
5.090642140999989,2037,1495,582
5.093331354999464,1986,1411,511
5.09602202699898,1952,1387,511
5.098710864998793,1936,1361,498
5.101398370999959,1932,1332,490
5.1040868339987355,2125,1445,560
5.106774547999521,2157,1467,558
5.109462094998889,2097,1495,576
5.1121502249989135,2023,1463,547
5.114837896999234,1975,1408,522
5.1175267359994905,1946,1392,511
5.120215448998351,1935,1338,482
5.122904204999941,2022,1405,537
5.125594709999859,2128,1456,558
5.128284589998657,2101,1472,560
5.130974054000035,2036,1505,581
5.13366139199934,1987,1409,511
5.136349938999047,1954,1392,511
5.139038194998648,1936,1358,496
5.141724324999814,1936,1344,501
5.144412496998484,2129,1445,560
5.147100835998572,2138,1463,559
5.14978679900014,2082,1495,580
5.152474720998725,2015,1446,540
5.15516293499968,1970,1399,511
5.157848731998456,1942,1383,511
5.1605418199997075,1935,1329,480
5.163277450999885,2017,1407,541
5.165966747999846,2074,1435,548
5.1686530859988125,2047,1455,557
5.171340633,2002,1469,562
5.174028763998649,1967,1388,507
5.176716101999773,1945,1383,511
5.17940648199874,1935,1344,492
5.1820937789998425,1945,1358,511
5.184783700999105,2109,1434,554
5.187472165000145,2106,1453,551
5.190161212000021,2054,1486,577
5.192894716999945,1996,1424,529
5.195586638999885,1960,1392,511
5.198276727998746,1937,1366,502
5.200963691999277,1930,1318,474
5.203653737999048,2103,1435,559
5.206341909999537,2163,1468,557
5.209029790999921,2119,1491,573
5.21171867099838,2044,1487,565
5.214406551000138,1986,1413,511
5.217095056999824,1941,1397,525
5.219796186998792,1931,1349,489
5.222484608999366,2007,1392,529
5.225170405999961,2158,1464,561
5.227859327998885,2137,1478,561
5.2305485409997345,2074,1515,587
5.233234671999526,2001,1435,532
5.235922926998683,1963,1406,528
5.238611681999828,1936,1371,505
5.241299187999175,1930,1331,493
5.243987400999686,2119,1447,562
5.246675489999689,2159,1471,560
5.2493628279989935,2101,1498,576
5.252051124998616,2032,1472,553
5.254742838998936,1981,1412,511
5.257431510999595,1946,1393,511
5.260120099999767,1931,1343,485
5.262809354999263,2029,1407,540
5.265496567999435,2140,1459,560
5.26818398999967,2117,1477,566
5.27086999599851,2057,1512,591
5.273556000998724,1997,1421,511
5.276243672999044,1962,1402,525
5.278936719998455,1938,1363,497
5.281626141999368,1936,1342,498
5.284315438999329,2122,1446,560
5.287005943999247,2128,1459,557
5.289694782999504,2077,1489,577
5.292384704998767,2004,1449,543
5.295075501999236,1963,1395,511
5.297762839998541,1936,1382,511
5.300453595998988,1922,1327,479
5.303142475999266,2058,1409,547
5.305829605998952,2161,1462,559
5.308518361000097,2128,1488,568
5.3112084079984925,2057,1510,578
5.313896579998982,1990,1417,511
5.3165849189990695,1957,1404,526
5.319275340998502,1936,1360,496
5.3219635959994775,1938,1360,511
5.3246512269997766,2112,1441,557
5.3273382729985315,2112,1457,556
5.330024028999105,2065,1489,577
5.332712783998431,2000,1435,535
5.335401372998604,1967,1395,511
5.338088877999326,1936,1376,511
5.340777591998631,1935,1325,479
5.343466846999945,2057,1419,553
5.346155101999102,2112,1450,555
5.3488848580000194,2078,1471,564
5.351576570999896,2017,1473,560
5.3542918269995425,1973,1397,509
5.356979872998636,1947,1391,511
5.359670586998618,1933,1344,489
5.362361133999002,1975,1375,524
5.365082722999432,2130,1450,557
5.367774685999393,2117,1449,553
5.370462482998846,2060,1488,576
5.373149321998426,2000,1422,522
5.37583591099974,1961,1391,511
5.3785265409987915,1936,1363,503
5.381215628998689,1931,1322,486
5.383907550998629,2095,1431,560
5.3865982229999645,2128,1453,554
5.38928510400001,2082,1483,566
5.391973691999738,2018,1465,547
5.394662488999529,1975,1402,511
5.39735499499875,1943,1390,511
5.400047416998859,1933,1339,486
5.402736671998355,2005,1392,532
5.4054250519984635,2141,1456,559
5.408117181999842,2115,1473,561
5.41081010400012,2057,1501,590
5.4153457379998144,1995,1419,527
5.418040743999882,1938,1375,511
5.420732706999843,1930,1323,475
5.423422253999888,2039,1413,545
5.426108592999299,2099,1440,553
5.428798639999513,2065,1461,560
5.43150401999992,2014,1472,561
5.4342374419993575,1974,1392,509
5.436931488999107,1945,1389,511
5.439632285999323,1936,1342,490
5.442323833000046,1958,1362,511
5.44501517199933,2065,1421,546
5.44770921899908,2062,1434,544
5.4504000159995485,2015,1471,570
5.453084603999741,1969,1408,522
5.455774442998518,1951,1377,507
5.458472532000087,1936,1356,497
5.461269828998411,1930,1312,477
5.46403916700001,2059,1419,555
5.4667415889998665,2092,1434,546
5.469434552998791,2045,1463,563
5.472126932998435,2000,1443,542
5.4748175219992845,1966,1390,508
5.477508943999055,1943,1378,509
5.480200740999862,1932,1328,476
5.482891245999781,2002,1391,530
5.4855812519999745,2096,1435,547
5.488272047999999,2071,1455,555
5.490962011999727,2021,1488,576
5.493651433998821,1975,1399,507
5.496343522998359,1949,1386,511
5.499032027999419,1935,1343,491
5.501720199999909,1933,1337,497
5.504407121999975,2041,1418,553
5.507096919000105,2046,1424,545
5.509787798999241,2018,1457,562
5.51248022099935,1978,1418,528
5.5151683509993745,1957,1375,504
5.517856647998997,1936,1365,502
5.520545986999423,1930,1318,473
5.523234616999616,2032,1401,540
5.525923622999471,2106,1442,554
5.5286120860000665,2076,1459,560
5.53130067499842,2019,1483,570
5.533987304999755,1975,1394,505
5.536676144000012,1950,1387,511
5.539365481999994,1935,1347,491
5.5420553629992355,1942,1355,507
5.544747075999112,2114,1440,554
5.547437789999094,2114,1456,549
5.550126669999372,2062,1489,576
5.552817424999375,2002,1431,528
5.555509721998533,1963,1393,511
5.55822743599856,1939,1374,502
5.560919982999621,1931,1325,478
5.563613196998631,2070,1424,555
5.566304326999671,2128,1455,555
5.5689873739993345,2089,1478,565
5.571678337999401,2027,1481,560
5.574372759998369,1975,1405,509
5.5770633069987525,1945,1392,522
5.579755727998418,1934,1345,489
5.5824474839992035,1975,1377,523
5.585135071998593,2119,1447,558
5.587825077998787,2108,1458,553
5.590513457998895,2047,1495,581
5.593202463000125,1993,1424,527
5.5958941349999805,1959,1392,511
5.5985831409998355,1936,1367,501
5.6012717289995635,1924,1318,478
5.6039604429988685,2086,1434,560
5.606652030999612,2121,1453,555
5.609342828000081,2077,1479,573
5.612033166999026,2017,1457,550
5.6147240469999815,1970,1398,510
5.617407260999244,1947,1387,511
5.620097557999543,1931,1335,483
5.622786312998869,1993,1389,528
5.625474442998893,2096,1439,549
5.628163489998769,2077,1451,554
5.630852578999111,2020,1485,579
5.633538917998521,1978,1402,511
5.636226214999624,1950,1386,511
5.638917053000114,1936,1356,496
5.641607016999842,1931,1329,493
5.644297314000141,2080,1427,553
5.646986276999087,2096,1441,547
5.649673615998836,2054,1472,565
5.652361287999156,2000,1438,542
5.655048667998926,1961,1389,509
5.657735924000008,1941,1377,511
5.660424428999249,1934,1328,480
5.663113225999041,2002,1392,538
5.665800523000144,2078,1431,551
5.668491652999364,2051,1448,556
5.671182741998564,1994,1469,560
5.67386645499937,1969,1390,501
5.6765582939988235,1947,1379,511
5.679250798999419,1936,1344,493
5.681935220998639,1935,1341,496
5.68462585099951,2087,1424,553
5.687315522998688,2091,1441,549
5.690002694998839,2044,1472,573
5.692691325999476,1991,1424,533
5.6953796229990985,1957,1387,509
5.698067460998573,1937,1371,503
5.7007573829996545,1934,1322,478
5.703448929998558,2017,1397,535
5.70613885199964,2065,1430,545
5.708857690999139,2037,1451,555
5.711550029000136,2000,1461,560
5.714269075999255,1968,1386,501
5.716959789999237,1941,1379,511
5.719647669999176,1935,1339,485
5.722336842000004,1958,1359,511
5.725024888999542,2080,1424,548
5.727713894999397,2073,1441,546
5.7304013579996536,2030,1474,574
5.733090863999678,1975,1411,527
5.735779243999787,1955,1381,507
5.738470040998436,1937,1360,498
5.741155670999433,1933,1310,474
5.743842717998632,2043,1415,550
5.746530347998487,2080,1431,546
5.749216436999632,2038,1456,560
5.751904525999635,2000,1449,543
5.754593280998961,1962,1386,502
5.757279285999175,1942,1379,509
5.759966165998776,1933,1333,483
5.762653963000048,1985,1380,529
5.765348134998931,2101,1438,554
5.768041181998342,2087,1450,551
5.770731687998705,2032,1488,576
5.773417984999469,1983,1408,511
5.776111822999155,1949,1387,511
5.778803494999011,1937,1359,496
5.781493666998358,1928,1327,489
5.784183838999525,2084,1427,558
5.786875302999761,2114,1446,549
5.789563640999404,2066,1477,566
5.79225397999835,2007,1454,544
5.7949432770001295,1968,1395,506
5.797633741000027,1939,1383,511
5.800503870999819,1927,1334,479
5.803193500998532,2037,1405,542
5.805881922999106,2128,1447,549
5.808571928999299,2100,1472,562
5.811259850999704,2037,1502,580
5.813947147998988,1983,1407,507
5.816636610999922,1951,1393,523
5.8193257419989095,1935,1357,496
5.822012912998616,1938,1345,506
5.82470375199955,2107,1435,551
5.828170050999688,2109,1452,551
5.830868055998508,2058,1486,576
5.833558435999294,1984,1413,511
5.8362503579992335,1954,1392,511
5.838937737999004,1936,1360,494
5.841623909998816,1929,1332,491
5.844313540999792,2074,1429,557
5.847003003998907,2095,1439,545
5.849690592998741,2054,1472,570
5.852378722998765,1998,1437,541
5.855066811998768,1961,1391,508
5.857753149999553,1941,1377,509
5.8604431559997465,1932,1328,481
5.863134035998883,2041,1402,541
5.8658267079990765,2139,1456,558
5.868516712998826,2110,1474,560
5.871207926998977,2038,1505,579
5.8738931819989375,1986,1408,511
5.876583145998666,1955,1394,511
5.87927369299905,1935,1359,496
5.8819613229989045,1932,1347,497
5.884651536998717,2100,1433,555
5.887339916998826,2108,1451,551
5.890026130999104,2061,1483,575
5.892714010999043,2000,1431,534
5.895403599999554,1958,1392,511
5.898094021998986,1936,1376,509
5.900784859999476,1928,1325,475
5.903474114998971,2064,1414,549
5.906160828999418,2128,1455,558
5.908884958998897,2096,1472,561
5.911575047999577,2032,1488,567
5.914288427999054,1981,1405,511
5.916978016999565,1949,1392,511
5.919667688998743,1936,1349,495
5.922358235999127,1957,1369,511
5.925047240998538,2113,1440,560
5.927739329999895,2110,1458,556
5.930427626999517,2059,1491,581
5.933114798999668,1994,1427,531
5.935802553998656,1962,1392,511
5.9384908089996316,1937,1370,503
5.941178397999465,1931,1318,480
5.94386602799932,2087,1430,560
5.946555033999175,2133,1461,558
5.949243954999474,2089,1485,566
5.951931626999794,2023,1473,557
5.954618382998888,1977,1405,511
5.957306179998341,1945,1392,511
5.959996517998661,1935,1343,489
5.962686148999637,1991,1387,531
5.965375945999767,2118,1451,560
5.968066617999284,2102,1461,561
5.970757788998526,2044,1494,579
5.973442877999332,1990,1419,525
5.976131674999124,1953,1392,523
5.978820679998535,1936,1362,502
5.98150756099858,1930,1327,489
5.984197232999577,2061,1424,557
5.986884904999897,2080,1433,547
5.989574076998906,2037,1463,566
5.99226433199874,2000,1442,543
5.994953794999674,1966,1390,502
5.997640050998598,1941,1377,511
6.000329055999828,1937,1328,481
6.003017602999535,2016,1392,534
6.0057044829991355,2109,1442,555
6.008438238999588,2086,1459,560
6.0111545769996155,2023,1488,576
6.013844832999894,1984,1403,509
6.016534754999157,1951,1391,511
6.019222760000048,1933,1353,493
6.021910056999332,1922,1336,497
6.024598478999906,2066,1424,550
6.027289983998344,2079,1435,544
6.029977030999362,2033,1469,565
6.0326667449990055,1986,1424,528
6.0353553329987335,1953,1383,502
6.038043671998821,1935,1366,501
6.040734135998719,1927,1321,471
6.043423641000118,2044,1406,542
6.046111812998788,2112,1444,549
6.0488029009993625,2083,1466,560
6.051492072998371,2027,1483,566
6.054181911998967,1980,1397,507
6.056902541999079,1948,1391,511
6.059592047999104,1936,1348,492
6.06228321999879,1951,1359,509
6.064970474999427,2121,1441,555
6.067688729999645,2121,1458,558
6.070415569000033,2064,1492,576
6.0731067409997195,1998,1429,532
6.075799329999427,1966,1394,511
6.078490792999219,1940,1371,502
6.081180964998566,1931,1322,470
6.083872761999373,2074,1427,551
6.0865670169987425,2118,1453,551
6.089258355999846,2075,1475,563
6.091950319998432,2019,1469,554
6.094640407998668,1970,1402,506
6.09732687199903,1943,1390,511
6.100017251999816,1934,1339,483
6.102706840998508,1987,1387,529
6.10539413799961,2127,1451,555
6.1080849760001,2101,1461,557
6.110773856999003,2055,1498,579
6.113460528998985,1993,1416,509
6.116152450998925,1958,1395,522
6.118841747998886,1936,1366,500
6.121528668998508,1929,1328,490
6.124219090999759,2118,1443,562
6.126908929998535,2153,1466,560
6.129596019000019,2096,1493,576
6.132284481998795,2027,1467,551
6.134973195999919,1974,1408,511
6.137660950998907,1947,1392,511
6.140349081999375,1933,1341,485
6.143037127998468,2027,1399,534
6.145725299998958,2135,1458,558
6.148420596999131,2110,1476,561
6.151111893999769,2044,1505,588
6.153802065999116,1990,1413,510
6.156493071999648,1953,1395,521
6.1591815349984245,1937,1360,496
6.161868790999506,1926,1338,496
6.164558712000144,2119,1441,559
6.167245300999639,2139,1462,555
6.16993326499869,2083,1494,571
6.1726217699997505,2017,1452,543
6.175314649999564,1971,1405,523
6.177997738999693,1939,1382,511
6.180688035999992,1933,1331,480
6.183379124999192,2039,1411,545
6.186068962999343,2122,1454,557
6.188759052000023,2096,1474,560
6.191449264999392,2033,1491,576
6.194134895999014,1981,1406,510
6.19682315099999,1950,1392,511
6.199515697999232,1936,1354,494
6.202231661998667,1937,1356,507
6.204921958998966,2112,1438,557
6.207612880998568,2114,1455,555
6.210300593998909,2059,1488,576
6.212989973999356,2000,1429,529
6.215679520999402,1959,1390,502
6.218371068000124,1936,1374,507
6.221059157000127,1930,1322,477
6.2237479539999185,2083,1427,558
6.2264374179994775,2138,1459,554
6.2291249229983805,2099,1483,566
6.231813177999356,2030,1483,563
6.234502557999804,1981,1406,511
6.237189521998516,1950,1395,511
6.23987823599964,1933,1347,487
6.2425679079988186,1975,1379,528
6.245256412999879,2137,1456,561
6.247946001998571,2128,1472,556
6.250635048998447,2065,1505,582
6.2533198869987245,2000,1431,530
6.256010850998791,1960,1395,511
6.258701063999979,1936,1370,503
6.261388944998544,1932,1326,482
6.264079824999499,2091,1435,560
6.266769788999227,2130,1456,557
6.26945871099997,2092,1487,573
6.272147048999614,2016,1468,549
6.274838762999934,1972,1405,511
6.277526267998837,1947,1392,511
6.280220732000089,1934,1344,483
6.282915529000093,2014,1395,537
6.285604116999821,2155,1459,560
6.288295330999972,2130,1479,563
6.290984127999764,2064,1514,588
6.293673217000105,1999,1424,523
6.296361429998797,1958,1403,522
6.299051726999096,1936,1365,502
6.301739273998464,1929,1339,495
6.304435028998341,2124,1448,560
6.307124367998767,2147,1467,559
6.309812997998961,2093,1497,576
6.312503503999324,2023,1461,546
6.315192633999686,1970,1407,511
6.317882221999753,1943,1387,507
6.320572060998529,1935,1339,485
6.323261607998575,2078,1422,545
6.326070321998486,2196,1481,562
6.328853244000129,2160,1507,576
6.331552832998568,2069,1520,581
6.334273754999231,1999,1426,525
6.33696588499879,1954,1412,523
6.339658389999386,1936,1361,496
6.342352562000087,1952,1369,511
6.3450435679988,2137,1454,560
6.347733280999819,2129,1470,560
6.350424786998701,2076,1505,585
6.353113832999952,2000,1439,542
6.355802379999659,1964,1399,524
6.358491260998562,1940,1378,507
6.361179682999136,1933,1324,478
6.363868687998547,2117,1441,560
6.366558443000031,2176,1474,560
6.369246364998617,2126,1503,576
6.371936995999931,2051,1497,560
6.37463975099854,1989,1422,524
6.377329506000024,1952,1406,511
6.380020427999625,1933,1349,488
6.382711307998761,2007,1395,528
6.385401771998659,2179,1472,561
6.388093776999085,2160,1490,566
6.390784323999469,2090,1523,590
6.393472746000043,2011,1442,528
6.396162209999602,1966,1409,523
6.398852506999901,1939,1378,504
6.40153976199872,1930,1335,491
6.40422955899885,2132,1456,570
6.406921522999255,2179,1481,561
6.409610944998349,2122,1511,579
6.412302116999854,2039,1479,558
6.414990538998609,1983,1418,525
6.417679001999204,1949,1395,528
6.420369340999969,1934,1339,481
6.423057595999126,2034,1410,540
6.4257452259989805,2176,1472,560
6.428433564999068,2139,1489,566
6.431120944998838,2066,1521,592
6.433808366999074,2000,1427,523
6.436496663998696,1957,1405,523
6.439193752999927,1936,1367,498
6.441883550000057,1931,1344,497
6.444572888000039,2144,1455,563
6.447262394000063,2166,1475,561
6.449954357000024,2105,1508,580
6.452646903999266,2028,1466,546
6.455336659999375,1974,1411,511
6.458024165000097,1941,1392,511
6.4607164619992545,1927,1337,483
6.46340684200004,2087,1424,551
6.466094096998859,2202,1486,566
6.468782977999581,2163,1509,576
6.471475482998358,2080,1528,583
6.4741681549985515,2003,1433,511
6.476889701998516,1957,1414,528
6.479581331999725,1936,1364,496
6.4822748379992845,1949,1367,511
6.48496013499971,2150,1458,560
6.487648931999502,2154,1477,560
6.49033781199978,2086,1513,585
6.493026149999423,2014,1451,542
6.49571386399839,1970,1407,523
6.49840366099852,1940,1382,510
6.50109558299846,1929,1328,475
6.503786921999563,2094,1437,560
6.506474426998466,2160,1471,561
6.509161098998447,2114,1493,571
6.511850061999212,2043,1493,565
6.5145397759988555,1983,1411,523
6.5172272809995775,1950,1399,525
6.519920161999835,1934,1350,491
6.522613458999331,1986,1376,525
6.5253035059995455,2176,1468,568
6.52799296899866,2165,1488,565
6.5306814329997,2095,1521,587
6.533370687999195,2012,1446,534
6.536063067998839,1968,1409,525
6.538751656999011,1938,1378,503
6.541438370999458,1929,1329,486
6.54412770899944,2096,1441,560
6.546816214999126,2133,1461,559
6.54950305300008,2092,1488,575
6.552192600000126,2021,1471,556
6.554881104999367,1971,1406,511
6.557567901998482,1943,1391,511
6.560257282999373,1936,1342,480
6.562948954999229,2007,1393,527
6.565637792999041,2131,1453,555
6.568370631999642,2112,1471,558
6.571062596000047,2047,1498,583
6.573753142998612,1993,1417,511
6.57644123099999,1957,1395,511
6.579131319998851,1936,1360,496
6.581822032998389,1929,1333,495
6.584510663999026,2112,1440,560
6.587200586000108,2137,1458,553
6.589889798999138,2080,1488,573
6.592579637999734,2015,1455,541
6.5952706019998,1968,1399,511
6.597960439999952,1941,1386,511
6.6006520289993205,1931,1330,481
6.6033436589987105,2052,1408,542
6.606031913999686,2143,1457,558
6.608721085998695,2112,1479,565
6.611410007999439,2043,1507,577
6.614098639000076,1985,1412,511
6.616790561000016,1953,1395,511
6.619479148999744,1935,1358,496
6.622167737999916,1923,1344,497
6.624893367999903,2137,1442,555
6.6275840399994195,2146,1470,560
6.630298336998749,2084,1504,580
6.632988675999513,2011,1447,533
6.6356801809997705,1968,1405,511
6.638371477998589,1941,1381,509
6.641058816998338,1931,1327,476
6.643747196998447,2097,1435,555
6.646436660999825,2180,1477,560
6.64912345799894,2129,1500,575
6.6518112549983925,2054,1502,569
6.654500050999559,1985,1418,511
6.657187889999477,1957,1403,528
6.659875353998359,1935,1357,496
6.662566233999314,1978,1378,527
6.665255655998408,2158,1462,561
6.667945452998538,2150,1482,560
6.670632874998773,2087,1517,584
6.673322671998903,2013,1445,532
6.676011427000049,1968,1407,511
6.678700390999438,1944,1378,505
6.681386020998616,1931,1327,482
6.684076025998365,2073,1435,557
6.686765447999278,2117,1454,553
6.689454161998583,2079,1481,566
6.692144083999665,2015,1467,555
6.694834755999182,1967,1397,511
6.697524093999164,1937,1389,511
6.7002149330000975,1926,1337,482
6.702903521998451,1995,1388,531
6.7055908189995534,2121,1448,557
6.708279740998478,2107,1463,560
6.71096753799975,2043,1494,581
6.71365491799952,1990,1418,523
6.716343672998846,1952,1392,511
6.7190328870001395,1936,1360,501
6.721721349998916,1926,1330,489
6.724438063998605,2142,1448,560
6.7271834859984665,2169,1468,557
6.729923991999385,2111,1505,579
6.732667496999056,2032,1471,550
6.735360751999906,1974,1411,523
6.738051923999592,1949,1392,523
6.740750012999342,1935,1338,483
6.743441560000065,2059,1417,549
6.746130857000026,2144,1463,559
6.74882111199986,2107,1483,563
6.75151274199925,2036,1503,577
6.754230538999764,1985,1411,510
6.7569232109999575,1951,1399,511
6.759614341999622,1934,1358,495
6.76230451399897,1942,1359,507
6.764991768999607,2111,1437,555
6.767680440998447,2110,1456,553
6.770369653999296,2061,1488,576
6.773059575998559,1997,1431,532
6.775747956999112,1961,1394,511
6.778438837000067,1937,1373,505
6.781123300999752,1929,1323,475
6.783814263999375,2057,1417,549
6.786505894999209,2110,1447,554
6.789192816999275,2078,1471,561
6.791882821999025,2019,1472,560
6.794572494000022,1975,1396,506
6.797260748999179,1941,1387,509
6.799947795998378,1935,1344,485
6.8026353850000305,1974,1372,525
6.805322931999399,2128,1449,560
6.808010353999634,2118,1459,557
6.81069931699858,2061,1497,578
6.8133869889989,2000,1430,529
6.816077118999601,1954,1395,511
6.8187677079986315,1938,1370,503
6.821458462998635,1931,1319,483
6.824158218998491,2076,1429,553
6.82684901599896,2112,1447,547
6.829534896000041,2065,1469,560
6.832225150999875,2010,1462,547
6.834914489998482,1968,1397,510
6.837603994999881,1947,1387,511
6.840297916998679,1935,1339,486
6.842999421998684,2005,1392,531
6.845688552999491,2131,1455,560
6.848378724998838,2112,1471,560
6.851071396999032,2047,1502,582
6.8537640269987605,1994,1419,511
6.856460406999759,1952,1397,511
6.859151453998493,1936,1361,499
6.861840042998665,1933,1334,496
6.864530464999916,2086,1431,558
6.867219302999729,2109,1450,549
6.86990809999952,2064,1479,566
6.872596396999143,2005,1446,540
6.87528390299849,1968,1392,507
6.877974907998578,1942,1381,507
6.880665495998983,1935,1328,477
6.883356209998965,2047,1407,542
6.886048214999391,2139,1456,559
6.888736553999479,2109,1476,564
6.8914276429986785,2042,1507,579
6.894115897999654,1985,1409,511
6.896805111999129,1954,1395,524
6.899495533998561,1936,1358,496
6.902183621999939,1933,1346,501
6.90490521099855,2081,1430,554
6.907595965998553,2085,1441,549
6.910285554999064,2036,1473,572
6.912975017999997,1990,1423,528
6.915664023999852,1958,1387,509
6.918354986999475,1936,1371,505
6.92104503399969,1931,1318,473
6.923742080998636,2071,1419,549
6.926431336998576,2134,1455,555
6.929118632999234,2096,1481,562
6.9318085969989625,2032,1479,560
6.934500268998818,1981,1406,509
6.9371872739993705,1948,1393,511
6.939878695999141,1936,1351,491
6.942567492998933,1971,1374,522
6.945255664999422,2145,1455,558
6.947945670999616,2137,1471,555
6.9506499679991975,2070,1508,581
6.953345014999286,2006,1441,531
6.956061852999483,1967,1401,511
6.95877873399877,1936,1360,492
6.961477155999091,1926,1312,469
6.964173160999053,2157,1449,560
6.966870999000093,2211,1482,561
6.969564338000055,2143,1515,576
6.972284176999892,2060,1493,558
6.9750214319992665,1986,1423,511
6.977759020999656,1947,1402,511
6.9804939850000665,1927,1344,478
6.983233656999801,2043,1405,528
6.985969411998667,2205,1482,560
6.988703291999627,2166,1505,565
6.991441922999002,2081,1534,589
6.99417596999956,2000,1426,509
6.996950392000144,1955,1408,511
6.999694230999012,1935,1360,490
7.002431777998936,1952,1364,505
7.005165990998648,2187,1466,561
7.007904704998509,2185,1488,560
7.010699418999138,2106,1520,580
7.0134811739990255,2019,1456,532
7.016224762999627,1966,1410,511
7.0189648939995095,1936,1375,499
7.021703398999307,1922,1329,481
7.024440945999231,2141,1453,560
7.027175909999642,2175,1478,557
7.0299120399995445,2111,1506,573
7.03264775399839,2031,1469,544
7.035385842998949,1970,1408,511
7.038119764998555,1937,1392,506
7.0408861029991385,1924,1331,473
7.043625149999571,2096,1425,543
7.046366197999305,2195,1482,555
7.049101994998637,2143,1502,565
7.051843666999048,2062,1510,571
7.054595171999608,1989,1418,510
7.057334135999554,1943,1401,511
7.060072348998801,1923,1347,482
7.0628086050001,1995,1387,523
7.065542193999136,2179,1469,558
7.068277115999081,2160,1487,560
7.071014370998455,2081,1520,581
7.073747750999246,2001,1433,511
7.076534548999916,1954,1405,509
7.079313886999444,1930,1365,494
7.0820488929985,1920,1342,493
7.084777939999185,2145,1449,557
7.087506777999806,2162,1471,553
7.090327201000036,2096,1506,575
7.093059997998353,2016,1455,538
7.095794377999482,1963,1403,507
7.098523924998517,1935,1378,499
7.101248638999095,1920,1323,469
7.103978102999463,2114,1439,549
7.106707357999767,2187,1474,551
7.109436154998548,2128,1503,564
7.1121665769987885,2038,1489,559
7.114894998998352,1978,1414,507
7.117620920998888,1939,1395,509
7.120348134998494,1922,1344,476
7.123078139999052,2031,1402,529
7.125803103999715,2207,1475,559
7.128530900999976,2173,1501,560
7.131258655999773,2085,1530,586
7.133984244999738,2000,1434,507
7.136711041999661,1951,1410,511
7.139438963999055,1927,1363,494
7.142167885998788,1920,1345,494
7.144933474999561,2175,1457,557
7.147664854999675,2189,1483,550
7.150393111000085,2110,1518,571
7.153119698999944,2018,1456,533
7.155847995998556,1967,1408,507
7.158574334998775,1932,1382,498
7.161299339999459,1918,1323,466
7.164027053999234,2140,1452,554
7.166755017999094,2220,1490,560
7.169481355998869,2151,1520,573
7.172183444999973,2061,1503,560
7.174872992000019,1984,1424,511
7.177560121999704,1940,1403,511
7.180247835998671,1921,1348,480
7.182935007998822,2004,1397,526
7.185622262999459,2176,1469,556
7.188309477000075,2154,1488,557
7.191023356999722,2074,1515,581
7.193711945999894,2000,1430,511
7.196402200999728,1951,1402,509
7.199091830998441,1923,1363,493
7.201780044999396,1917,1327,481
7.204469758999039,2155,1453,560
7.207160638999994,2176,1472,549
7.209848810998665,2118,1509,576
7.212538523999683,2031,1472,548
7.215226862999771,1968,1410,511
7.217916826999499,1936,1391,511
7.220605581998825,1918,1334,477
7.223294295999949,2069,1412,533
7.225980925999465,2207,1478,559
7.2286693480000395,2163,1502,562
7.231359061999683,2079,1531,583
7.234045899998819,1998,1426,511
7.236733779998758,1947,1407,511
7.239425160998508,1925,1361,490
7.242112291000012,1917,1344,495
7.244802962999529,2160,1451,557
7.247492926999257,2176,1474,551
7.250182099000085,2103,1507,575
7.252909146000093,2019,1456,531
7.255600858999969,1963,1407,506
7.2582903649999935,1931,1382,499
7.2609792449984525,1917,1326,466
7.263671875,2108,1426,545
7.266370046998418,2206,1495,567
7.269062343999394,2151,1519,576
7.271848640999451,2064,1524,581
7.274597687999631,1987,1429,523
7.27729385999919,1940,1407,527
7.279988323998623,1925,1353,493
7.282680078998965,1961,1375,528
7.2853698339986295,2112,1446,559
7.288061505998485,2103,1458,556
7.290748344999884,2041,1490,576
7.293436934000056,1984,1423,526
7.296127689000059,1948,1389,511
7.298817360999237,1927,1360,499
7.301503782999134,1920,1312,480
7.304194622000068,2081,1425,560
7.306883584999014,2121,1449,547
7.309569798999291,2074,1472,569
7.312258095998914,2010,1462,554
7.314947058999678,1967,1394,506
7.317635105999216,1936,1383,511
7.320323986999938,1925,1334,487
7.323027574999287,1999,1386,531
7.325726288998339,2129,1447,557
7.328418376999252,2107,1465,558
7.3311087989986845,2037,1498,578
7.333796304999851,1984,1413,511
7.336485351999727,1947,1392,511
7.339175106999392,1925,1357,500
7.34186186199986,1913,1317,484
7.344549742998424,2101,1433,557
7.347239664999506,2121,1453,553
7.34992750299898,2069,1482,561
7.352613924998877,2000,1447,538
7.355301263998626,1958,1392,509
7.357989935999285,1934,1373,510
7.3606816489991616,1922,1326,477
7.363371654999355,2044,1404,542
7.366058492998491,2161,1459,560
7.3687473319987475,2128,1483,565
7.371480754000004,2058,1515,587
7.374172258998442,1985,1417,511
7.376900847999423,1945,1394,521
7.379592769999363,1930,1357,494
7.382287399999768,1926,1346,502
7.384976029999962,2109,1436,558
7.387664201998632,2115,1456,555
7.390352748998339,2063,1486,576
7.393041504999928,1998,1432,536
7.39573084299991,1955,1391,511
7.398415973999363,1933,1371,507
7.401101895999091,1919,1319,479
7.40378977599903,2064,1414,557
7.40647744799935,2129,1455,557
7.409163327998613,2090,1475,571
7.411851082999419,2026,1485,571
7.414539296998555,1974,1401,509
7.417226135999954,1939,1390,511
7.419914390999111,1923,1345,494
7.422605145999114,1963,1364,523
7.425294650998694,2130,1444,559
7.427983072999268,2127,1461,557
7.430671786998573,2064,1498,578
7.433357541998703,1998,1431,530
7.436045047999869,1953,1393,511
7.438734469998963,1930,1369,505
7.44142143299905,1923,1317,475
7.4441250629988645,2102,1429,554
7.446820026998466,2155,1466,560
7.449508490999506,2103,1490,575
7.452198328999657,2029,1482,560
7.454887375999533,1970,1408,511
7.457577339999261,1939,1392,511
7.4602677619986935,1925,1341,489
7.463221183999849,2005,1392,533
7.465909272999852,2158,1459,559
7.468599986999834,2128,1476,564
7.471290034000049,2057,1511,587
7.473977580999417,1990,1419,511
7.476665418998891,1952,1394,511
7.479353215998344,1932,1359,496
7.4820412209992355,1923,1335,495
7.484729101999619,2109,1437,557
7.487415939998755,2127,1456,555
7.490104028998758,2069,1488,571
7.492791742999543,2006,1447,542
7.495479705999969,1962,1393,511
7.498166669998682,1937,1379,507
7.500940133999393,1922,1328,475
7.503634805998445,2058,1410,543
7.506326643999273,2142,1456,557
7.509013690998472,2100,1475,563
7.511702654999681,2032,1492,570
7.514391201999388,1982,1406,507
7.517081332000089,1938,1392,511
7.519773378999162,1930,1350,491
7.522463717999926,1936,1355,509
7.52515101499921,2085,1427,551
7.527839894999488,2083,1442,548
7.530527524999343,2032,1474,575
7.533214321998457,1984,1420,528
7.535903535999751,1952,1383,507
7.538594582998485,1934,1361,503
7.5412820459987415,1926,1313,468
7.543970634998914,2064,1419,549
7.546658931998536,2122,1442,546
7.549347479000062,2081,1474,563
7.552037941999515,2023,1475,560
7.554726988999391,1969,1398,510
7.5574146609997115,1943,1388,511
7.560101832999862,1926,1341,487
7.562792588998491,1970,1367,523
7.56548046899843,2107,1437,557
7.568168682999385,2096,1451,555
7.570856895999896,2039,1488,577
7.573543192998841,1984,1418,528
7.57623136499933,1950,1391,511
7.578918994999185,1935,1360,496
7.581609291999484,1923,1317,483
7.584298713998578,2051,1422,553
7.586986469999829,2083,1429,546
7.5896745169993665,2042,1459,561
7.5923606469987135,1995,1445,545
7.595049401999859,1961,1386,502
7.597737573998529,1936,1376,511
7.600426953998976,1929,1329,481
7.603117126000143,2000,1385,529
7.605804839999109,2126,1446,554
7.608493928999451,2105,1460,560
7.611182933998862,2036,1494,586
7.61387210599969,1984,1410,511
7.616564277999714,1952,1392,511
7.619253615999696,1931,1359,496
7.621941662999234,1926,1328,496
7.6246378349987936,2068,1425,559
7.627327381998839,2087,1438,551
7.630014303998905,2041,1467,570
7.632701725999141,1994,1434,541
7.635391148000053,1957,1386,510
7.638076861998343,1932,1373,509
7.640766033999171,1926,1321,481
7.643454538998412,2023,1393,537
7.64614391899886,2113,1443,556
7.648872174999269,2083,1456,556
7.651564179999696,2026,1492,576
7.654279434998898,1975,1399,507
7.656970774000001,1947,1390,511
7.659660528999666,1932,1348,491
7.662349575999542,1933,1345,502
7.665037705999566,2086,1427,553
7.6677258370000345,2095,1443,551
7.670413258998451,2041,1474,574
7.673100096999406,1986,1424,531
7.6757889359996625,1953,1383,509
7.678478774998439,1935,1365,501
7.68116861299859,1924,1316,473
7.683857618998445,2057,1413,550
7.686545831998956,2119,1449,557
7.68923292099862,2086,1471,562
7.69192030099839,2020,1478,560
7.694607639999958,1970,1397,508
7.697295561998544,1945,1389,511
7.699984358998336,1932,1344,487
7.703482864999387,1964,1364,511
7.706183620999582,2112,1442,559
7.708913958998892,2090,1456,560
7.711606505999953,2025,1485,575
7.714297886999702,1979,1394,505
7.716985349999959,1946,1381,511
7.719675980999455,1927,1347,492
7.722379236000052,1938,1346,508
7.7250783250001405,2145,1445,561
7.727769080000144,2151,1466,559
7.730458251999153,2083,1502,579
7.733146381999177,2009,1443,537
7.735836761999963,1965,1403,511
7.738526892999289,1936,1379,509
7.741217605998827,1925,1326,479
7.743906694999168,2085,1427,558
7.746596783999848,2172,1472,560
7.749284830999386,2122,1495,575
7.751974627999516,2047,1489,561
7.754664424999646,1988,1417,526
7.757351137999649,1951,1404,525
7.76004014299906,1931,1354,494
7.7627300240001205,1974,1380,528
7.765419321000081,2139,1457,560
7.7681089929992595,2129,1473,560
7.770798664998438,2064,1498,580
7.773489377999795,2000,1437,536
7.776179508999121,1958,1397,525
7.778868554998553,1935,1371,505
7.781556685999021,1929,1318,481
7.784244857999511,2079,1429,560
7.786932195998816,2117,1452,546
7.789618992999749,2073,1477,566
7.792305664999731,2014,1466,553
7.794995170999755,1968,1393,510
7.797682591999546,1938,1389,511
7.80038163899917,1930,1338,483
7.803070644999025,2003,1392,533
7.805759691998901,2160,1457,561
7.808450904998608,2135,1479,560
7.8111398269993515,2070,1510,592
7.813827415999185,2000,1425,528
7.81651533799959,1955,1399,526
7.8192030519985565,1935,1367,501
7.821889639999426,1926,1331,494
7.824732270999448,2114,1442,564
7.8274197339997045,2147,1463,560
7.830107322999538,2094,1494,577
7.832800661999499,2018,1456,547
7.835491374999037,1969,1405,511
7.838180838998596,1939,1389,510
7.840910802999133,1927,1333,484
7.843601557999136,2083,1421,551
7.846290770999985,2192,1478,562
7.84897977699984,2153,1501,571
7.851670448999357,2069,1520,582
7.854358703998514,1996,1418,507
7.857046667999384,1955,1408,526
7.859736380998584,1934,1362,497
7.862425677998544,1943,1365,511
7.865112891999161,2159,1459,563
7.867800563999481,2163,1479,560
7.870491443998617,2095,1512,583
7.873179323998556,2016,1456,541
7.875869079998665,1968,1408,523
7.878558376998626,1940,1386,511
7.881247714998608,1926,1328,479
7.883936136999182,2096,1437,558
7.886624351000137,2160,1470,560
7.889311897999505,2110,1492,575
7.891999985999064,2039,1490,567
7.894687449999765,1981,1411,511
7.897375288999683,1947,1397,526
7.900065543999517,1925,1350,494
7.902764007998485,1989,1381,528
7.905453887999101,2182,1469,563
7.908145767998576,2162,1488,563
7.910836481998558,2093,1520,587
7.913525861999005,2011,1447,535
7.916212825999537,1966,1409,523
7.918902163999519,1937,1378,509
7.921589044999564,1926,1328,483
7.924277549998806,2100,1442,563
7.92696463899847,2142,1463,560
7.929651768999975,2093,1488,572
7.932340523999301,2025,1473,560
7.9350316539985215,1972,1407,511
7.937721575999603,1943,1394,511
7.940410664999945,1933,1344,487
7.943100753998806,2017,1396,532
7.945788216999063,2182,1470,562
7.948476638999637,2159,1488,567
7.951164477999555,2082,1522,593
7.9538529829987965,2007,1437,529
7.956542029998673,1961,1399,511
7.95923140999912,1934,1375,502
7.9619194569986576,1923,1337,490
7.964610379000078,2137,1456,566
7.967299550999087,2166,1475,560
7.96998763999909,2105,1501,580
7.972678644999178,2029,1471,551
7.975392608999755,1977,1413,511
7.978118363998874,1941,1393,511
7.980852702999982,1927,1338,486
7.983590291998553,2079,1421,549
7.98632050499873,2201,1485,561
7.98904746900007,2159,1502,572
7.9917773910001415,2076,1525,583
7.994504604999747,1999,1427,523
7.997232234998592,1954,1409,529
7.999963782000123,1935,1360,496
8.002691745999982,1968,1374,522
8.005416000998594,2162,1463,562
8.008142422999299,2155,1487,565
8.010872094999286,2089,1516,591
8.013656183999046,2013,1447,539
8.016414147999967,1968,1409,526
8.019144569998389,1940,1375,506
8.021870158998354,1931,1333,491
8.024598246998721,2089,1439,564
8.027327043999321,2111,1454,558
8.030053257998588,2061,1474,571
8.032783262999146,1999,1443,543
8.03551147699909,1952,1392,510
8.038274857999568,1934,1377,509
8.04100448799909,1924,1325,477
8.043734159999076,2068,1412,546
8.046461998999803,2163,1462,560
8.049188003999006,2124,1487,572
8.051914842999395,2047,1502,577
8.05464338999991,1987,1410,511
8.05736885299848,1955,1396,526
8.06009694199929,1936,1351,496
8.062825780998537,1995,1381,529
8.065552202999243,2195,1472,570
8.06828087499889,2178,1494,570
8.07100996400004,2096,1527,591
8.073735760999625,2017,1452,534
8.076463598999908,1968,1414,528
8.079190687998562,1937,1379,508
8.081915234999542,1928,1339,495
8.084679031999258,2131,1456,567
8.087483037999846,2167,1478,561
8.090251417999752,2107,1509,585
8.092983631999232,2027,1466,547
8.095711345999007,1971,1411,526
8.098437225999078,1940,1391,511
8.101163605999318,1927,1333,478
8.103894444999241,2096,1430,558
8.106623658999524,2191,1479,560
8.109349330999976,2138,1504,575
8.11207775299954,2060,1505,573
8.116604427999846,1990,1423,511
8.119342141999368,1936,1376,508
8.122071313999186,1925,1339,496
8.124801402998855,2126,1450,563
8.127530740999646,2145,1469,560
8.130301746999976,2087,1499,582
8.13302937699882,2014,1455,535
8.135761673998786,1968,1405,511
8.13849009599835,1938,1386,510
8.1412151429995,1918,1318,469
8.143943690000015,2075,1424,555
8.146674111998436,2143,1462,559
8.149401992999628,2098,1485,571
8.152131289998579,2023,1486,566
8.154857669998819,1979,1407,511
8.157586591998552,1950,1393,523
8.160317055999258,1934,1346,487
8.163045227998737,2002,1387,531
8.165771691999907,2149,1456,560
8.168498154998815,2128,1474,560
8.171225701998992,2064,1505,582
8.174354124999809,1997,1424,526
8.177070005998758,1955,1397,525
8.179764093998529,1934,1354,496
8.182454932999462,1939,1355,511
8.185144354998556,2112,1440,560
8.18783381799949,2112,1456,553
8.19052065699907,2063,1488,576
8.193207245998565,2000,1435,537
8.195897001000048,1963,1394,511
8.198584797999501,1940,1375,505
8.201273344999208,1929,1323,474
8.20396426699881,2044,1418,547
8.206652188999215,2101,1446,547
8.209341776999281,2066,1465,560
8.21203740799865,2014,1472,560
8.214727245998802,1969,1392,503
8.217415209999672,1947,1387,511
8.220104631998765,1933,1343,490
8.222794428998895,1977,1371,523
8.225486850999005,2156,1455,560
8.228179730998818,2146,1472,560
8.230879319999076,2081,1512,588
8.23356349200003,2007,1440,529
8.236396496999077,1963,1404,511
8.239089418999356,1936,1370,507
8.241778799998428,1927,1328,487
8.244471137999426,2126,1447,562
8.247160019000148,2166,1472,560
8.24984802399922,2111,1501,576
8.252537111999118,2034,1476,555
8.255227367999396,1979,1412,511
8.257915039999716,1943,1394,511
8.260605419998683,1935,1344,486
8.263295134000145,2019,1395,531
8.265982888999133,2131,1456,559
8.26867256100013,2103,1474,563
8.271360524999182,2037,1505,588
8.274050654999883,1986,1414,511
8.276747326999612,1953,1395,523
8.279443039999023,1936,1360,498
8.28213271200002,1931,1339,497
8.28482613399865,2108,1439,560
8.287519555999097,2125,1456,557
8.290238519999548,2075,1488,574
8.29292548400008,2009,1451,541
8.295615821998581,1967,1396,511
8.29830641099943,1938,1381,511
8.300995998999497,1930,1328,480
8.303685588000008,2053,1411,546
8.306379259998721,2127,1456,559
8.309069806999105,2084,1472,562
8.311759770998833,2029,1490,574
8.314450525998836,1982,1403,511
8.31713811499867,1950,1392,523
8.319827827999688,1931,1351,496
8.322515999998359,1943,1357,510
8.325209588998405,2118,1442,558
8.327904260999276,2118,1456,554
8.33059484899968,2064,1491,578
8.333283354999367,2001,1433,529
8.335973651999666,1961,1393,511
8.33866523999859,1939,1374,508
8.341354286998467,1928,1321,475
8.344043375998808,2080,1424,554
8.346731797999382,2138,1458,559
8.349421344999428,2099,1483,570
8.352111891999812,2032,1484,562
8.35479943899918,1980,1407,511
8.357487444000071,1951,1394,522
8.360177073998784,1934,1347,493
8.362866662999295,1983,1378,528
8.365554334999615,2123,1441,554
8.368242839998857,2112,1467,559
8.370933636999325,2047,1499,577
8.373635475998526,1996,1429,527
8.376337938998404,1957,1396,511
8.379034360999867,1936,1365,502
8.381723866999891,1928,1324,481
8.384415413998795,2112,1441,562
8.38710416899994,2145,1463,560
8.389793173999351,2096,1489,576
8.392480053998952,2023,1471,556
8.395167142998616,1974,1406,511
8.39785606499936,1945,1392,511
8.400543486999595,1932,1341,490
8.403235451,2006,1393,536
8.405924705999496,2107,1443,547
8.408621710999796,2088,1459,558
8.411329757998828,2028,1491,581
8.414027221999277,1981,1408,511
8.416721060999407,1952,1390,511
8.419413106999855,1933,1359,496
8.422101903999646,1925,1331,495
8.42479720099982,2069,1424,558
8.427491372998702,2086,1434,549
8.430180794999615,2038,1469,568
8.432919091999793,1991,1434,539
8.435613347999606,1958,1385,507
8.438311144998806,1938,1370,508
8.440999941998598,1931,1321,478
8.443690363999849,2059,1408,543
8.446381826999641,2141,1457,558
8.449070831999052,2099,1477,565
8.451762212998801,2035,1497,576
8.454452050998952,1982,1408,509
8.457139264999569,1953,1394,524
8.459827144999508,1936,1355,493
8.462516941999638,1946,1360,510
8.46520632299871,2125,1446,555
8.467897619999349,2126,1456,550
8.470588582998971,2071,1497,580
8.473277462999249,2004,1441,538
8.475970426999993,1965,1398,511
8.478662849000102,1936,1376,507
8.481351145999724,1931,1326,479
8.484042192998459,2072,1424,556
8.486734322999837,2128,1455,551
8.489422494998507,2089,1479,567
8.49211029199978,2023,1481,564
8.494798838999486,1973,1403,511
8.497488135999447,1947,1392,523
8.500178432999746,1935,1345,485
8.502865146998374,1982,1376,528
8.505553151999266,2121,1447,557
8.508241490999353,2109,1463,554
8.510930995998933,2054,1494,578
8.513617250999232,1996,1425,530
8.516308589998516,1957,1392,511
8.518999261999852,1936,1362,498
8.521686766998755,1929,1322,485
8.524376646999372,2096,1435,560
8.527070110998466,2133,1458,558
8.52976440800012,2095,1488,571
8.53245712199896,2021,1472,555
8.535145959998772,1971,1405,511
8.53783379899869,1944,1392,511
8.540523553998355,1931,1341,483
8.543212100999881,2011,1393,533
8.545897439998953,2131,1456,555
8.548586152999633,2114,1473,560
8.55127419999917,2047,1504,580
8.553961955998602,1993,1417,511
8.556651002998478,1954,1395,522
8.55933904899939,1937,1362,501
8.562028429998463,1926,1331,496
8.564719726999101,2117,1442,561
8.567409106999548,2138,1461,558
8.570096736999403,2084,1488,574
8.572797117998562,2016,1441,531
8.575504039999942,1968,1392,499
8.57824333699864,1938,1376,497
8.58093642499989,1927,1328,470
8.583627930998773,2067,1408,533
8.586317935998522,2167,1463,554
8.58900794100009,2128,1486,560
8.591695612998592,2055,1510,576
8.594384242998785,1986,1414,507
8.597071623999,1946,1399,511
8.59976246199949,1936,1366,499
8.602450758999112,1937,1361,511
8.605138264998459,2119,1452,560
8.607825186998525,2128,1465,559
8.610513482999522,2070,1499,579
8.613202779999483,2006,1441,534
8.615893827000036,1962,1399,511
8.61858270799894,1938,1378,510
8.621270754998477,1926,1325,478
8.623962801999369,2055,1419,549
8.62665718199969,2115,1453,555
8.629350478999186,2082,1472,562
8.63204285899883,2017,1479,563
8.634733905999383,1969,1396,507
8.637423577998561,1947,1391,511
8.64011437499903,1935,1344,484
8.64280446399971,1972,1367,524
8.645492427000136,2138,1448,558
8.648182598999483,2128,1469,561
8.65087222999864,2066,1499,582
8.653560609998749,2001,1435,531
8.656250322999767,1958,1399,511
8.658941994999623,1936,1371,502
8.661632083998484,1930,1319,479
8.66432113099836,2124,1443,560
8.667011010998976,2177,1472,560
8.669699516998662,2117,1503,576
8.672389313998792,2038,1487,562
8.675079610999092,1981,1415,511
8.677787990998695,1951,1399,524
8.680479162998381,1931,1346,492
8.68317050099904,1997,1392,537
8.685858422999445,2118,1453,560
8.688548428999638,2100,1466,560
8.691237641998669,2037,1499,586
8.693925813999158,1989,1415,511
8.696621652999966,1954,1392,511
8.699309616999017,1936,1361,501
8.701997204998406,1927,1329,493
8.704686209999636,2086,1431,557
8.707376881999153,2113,1450,558
8.71006551299979,2062,1481,571
8.712754850999772,2007,1449,543
8.715443856999627,1967,1392,511
8.71813136199853,1938,1379,511
8.72082036699976,1931,1330,481
8.723513830998854,2030,1402,537
8.726234919999115,2131,1455,559
8.728926549998505,2105,1473,563
8.731621221999376,2039,1506,582
8.734337226998832,1985,1410,509
8.737058856999283,1951,1392,523
8.739790487999926,1934,1355,496
8.742487825998978,1936,1351,510
8.745177039998453,2126,1442,559
8.747866836998583,2128,1459,558
8.750558591998924,2070,1493,577
8.753250472998843,2005,1437,541
8.755942144998698,1967,1397,511
8.758633149998786,1937,1376,509
8.76132390499879,1932,1326,477
8.764012701998581,2078,1423,553
8.76670187399941,2134,1457,555
8.769389212999158,2096,1479,569
8.772077759998865,2027,1487,563
8.77476538999872,1981,1401,503
8.777456603998871,1951,1393,511
8.78014710899879,1934,1347,491
8.78283769799964,1975,1377,511
8.78556649499842,2138,1455,559
8.788258749998931,2127,1467,560
8.790950254999188,2065,1503,579
8.793640134999805,2003,1435,529
8.796330098999533,1968,1402,511
8.799018020999938,1940,1371,507
8.801706401000047,1931,1323,485
8.804394864999267,2095,1436,560
8.807087829000011,2123,1456,556
8.809780333998788,2078,1479,570
8.812470005999785,2005,1464,551
8.815160927999386,1965,1394,509
8.817851307998353,1936,1381,511
8.820544104999499,1922,1333,482
8.823234484998466,1999,1390,528
8.825930865999908,2112,1445,554
8.82862128799934,2094,1458,558
8.831313375998434,2032,1490,578
8.834002173000044,1984,1405,511
8.836691803999202,1952,1391,511
8.839380308998443,1935,1359,495
8.842076021999674,1925,1329,492
8.844772277998345,2112,1437,560
8.847469990998434,2134,1456,555
8.850168912998924,2081,1488,574
8.852903209999567,2013,1454,543
8.855596298999444,1968,1397,506
8.858288387998982,1940,1383,509
8.860976893000043,1927,1328,480
8.86367002299994,2058,1410,543
8.86636190399986,2145,1459,559
8.86904553399836,2103,1479,561
8.871737080999083,2042,1502,576
8.874432085998706,1986,1410,510
8.877124674998413,1951,1393,507
8.879815804999453,1936,1357,491
8.88250860199878,1937,1355,508
8.885198648998994,2113,1440,557
8.887889862999145,2115,1457,548
8.890581450999889,2062,1488,574
8.893270497999765,1999,1433,531
8.895959378000043,1961,1392,511
8.89865163399918,1938,1375,507
8.901338971998484,1927,1323,470
8.904026768999756,2064,1421,549
8.906716524999865,2113,1451,551
8.90940415499972,2078,1472,561
8.912093368999194,2017,1477,560
8.914786331999494,1969,1395,505
8.917474586998651,1943,1389,511
8.920163508999394,1936,1344,491
8.922852722998869,1968,1369,525
8.925539227999252,2105,1439,558
8.928229858998748,2096,1455,554
8.930920863998836,2035,1487,575
8.93360907799979,1987,1423,528
8.936297374999413,1954,1391,511
8.938984880000135,1936,1360,501
8.94167200999982,1927,1314,480
8.94436097399921,2093,1430,559
8.947050437000144,2131,1456,555
8.949736650998602,2087,1484,573
8.952427072999853,2026,1471,560
8.955116827999518,1975,1405,511
8.957803416999013,1944,1391,511
8.960492963999059,1933,1342,491
8.963183718999062,1999,1391,531
8.965871432999847,2106,1445,555
8.96856106299856,2086,1457,557
8.971249151998563,2032,1492,582
8.973937031998503,1984,1409,511
8.976628495998739,1950,1389,511
8.979317625999101,1935,1360,496
8.982005338999443,1926,1326,486
8.984694219998346,2101,1433,560
8.987384182999449,2128,1456,556
8.990071771999283,2073,1484,573
8.992761443998461,2014,1453,545
8.995449990999987,1968,1398,511
8.998138245999144,1941,1379,511
9.000879626999449,1930,1335,490
9.00357321499905,2026,1399,539
9.006286095998803,2112,1447,556
9.008976392999102,2087,1466,558
9.01166843899955,2029,1494,576
9.014400569998543,1977,1403,511
9.017115324999395,1946,1392,511
9.019804496998404,1933,1349,496
9.022493876998851,1936,1347,507
9.025180965998516,2096,1431,558
9.027871429998413,2105,1447,550
9.03056080999886,2057,1483,576
9.03324735699971,1999,1429,531
9.03593744599857,1959,1392,509
9.038626408999335,1936,1373,507
9.041314955999042,1934,1323,478
9.044004210998537,2038,1411,550
9.046693382999365,2096,1442,553
9.049380096999812,2064,1462,560
9.052081935999013,2007,1471,561
9.054781815999377,1968,1392,510
9.057469987999866,1946,1383,511
9.0601610349986,1932,1343,487
9.06284841499837,1959,1362,511
9.065535503999854,2064,1424,547
9.068225175999032,2060,1431,544
9.070913388999543,2016,1469,570
9.073603185999673,1971,1407,511
9.076297357998556,1950,1378,510
9.078987154998686,1935,1354,499
9.081675785999323,1931,1308,479
9.084365082999284,2106,1429,558
9.08705275399916,2143,1458,556
9.08973909299857,2097,1486,571
9.09243822299868,2023,1473,559
9.095165561999238,1981,1406,511
9.09786052599884,1946,1393,511
9.10055003099842,1931,1340,485
9.103236994998952,2015,1393,534
9.105923332999737,2145,1457,560
9.108614379998471,2118,1473,561
9.111303301999214,2055,1506,586
9.11398989099871,1995,1421,511
9.116678812999453,1958,1397,511
9.119368525998652,1936,1363,500
9.12205494799855,1922,1333,493
9.124743369999123,2106,1439,560
9.127436416998535,2126,1456,555
9.130125005998707,2074,1487,575
9.132814177999535,2011,1455,547
9.135505140999157,1968,1399,510
9.138222521998614,1946,1387,511
9.14091473499866,1933,1333,482
9.143606198998896,2035,1405,542
9.14629541299837,2126,1455,558
9.148982459999388,2095,1469,562
9.151672340000005,2035,1501,582
9.15436317899912,1984,1407,511
9.157050725998488,1943,1392,511
9.159745396998915,1936,1357,496
9.162440027999764,1935,1345,502
9.165129365999746,2077,1428,551
9.167819246998988,2079,1440,546
9.170511543999964,2034,1472,569
9.17320421599834,1986,1423,527
9.175896262999231,1957,1385,503
9.178591184998368,1938,1369,508
9.181279897999048,1931,1319,476
9.183970902999135,2063,1414,549
9.186659866998525,2112,1447,553
9.189348746998803,2075,1468,563
9.192039419000139,2014,1477,561
9.194727799998873,1970,1395,505
9.197417221999785,1946,1388,511
9.200105518999408,1932,1344,493
9.20279648199903,1967,1363,511
9.205486611999731,2129,1447,558
9.20817690900003,2126,1462,557
9.210867330999463,2063,1495,578
9.21355433699864,2000,1433,528
9.216243174998453,1964,1397,511
9.218933096999535,1936,1371,502
9.221620977999919,1930,1322,471
9.224312524998822,2067,1426,555
9.227004904998466,2106,1447,553
9.229694451998512,2065,1472,565
9.232385706998684,2012,1463,559
9.235078878999047,1968,1395,511
9.237768592998691,1941,1383,511
9.240458972999477,1930,1337,487
9.243147727998803,1975,1379,529
9.24583685899961,2066,1426,550
9.248526696999761,2053,1439,550
9.25121607699839,2011,1474,573
9.253904415998477,1975,1400,507
9.256594920998396,1948,1381,511
9.25928363499952,1935,1355,501
9.261970014998951,1930,1318,486
9.264658811998743,2102,1431,557
9.26735010899938,2130,1456,553
9.270039239998368,2080,1483,573
9.2727315359989,2019,1456,546
9.27542262499992,1968,1402,510
9.278113088999817,1941,1387,521
9.280803386000116,1931,1332,481
9.283493557999464,2032,1402,539
9.286181562998536,2134,1455,559
9.288912901998629,2101,1472,560
9.291604573998484,2039,1505,582
9.294295495999904,1985,1409,511
9.296983500998977,1951,1391,511
9.299673588999212,1936,1358,496
9.302361677999215,1935,1343,500
9.305048599999282,2078,1428,553
9.307737813998756,2089,1440,547
9.3104294019995,2034,1472,567
9.313118198999291,1991,1427,534
9.315810162999696,1959,1386,511
9.318499293000059,1940,1371,507
9.321190464999745,1935,1322,478
9.323883553999622,2061,1411,547
9.326575516999583,2127,1453,555
9.329266397999163,2092,1472,563
9.331958486000076,2032,1487,573
9.334650199998578,1978,1403,510
9.337338454999554,1946,1392,511
9.340028251999684,1936,1347,491
9.342717173998608,1954,1360,511
9.345405595999182,2128,1443,560
9.34809576799853,2122,1459,555
9.350784397998723,2064,1494,579
9.353470611999,2000,1433,531
9.356160491999617,1959,1393,511
9.35885049799981,1937,1372,508
9.361539419998735,1931,1322,476
9.364230674998907,2075,1426,560
9.366921012999228,2121,1454,547
9.369611184998575,2079,1475,566
9.372301440998854,2018,1472,560
9.374991904000126,1972,1395,511
9.377709368000069,1943,1389,511
9.38044141499995,1933,1342,483
9.383169128999725,1994,1384,529
9.38589596699967,2117,1446,559
9.38862401499864,2096,1461,560
9.391352894999727,2033,1490,583
9.39408202499908,1986,1411,511
9.396813489000124,1951,1392,523
9.399542618999476,1935,1360,498
9.402308124999763,1928,1334,496
9.405036962998565,2082,1429,555
9.407764884999779,2097,1439,553
9.410491223999998,2043,1475,575
9.413218145999053,1994,1427,531
9.415948026999104,1956,1390,509
9.418676198998583,1936,1370,506
9.421400703999097,1932,1318,470
9.424130501000036,2042,1414,546
9.426861297999494,2098,1441,546
9.429590886998994,2064,1462,560
9.432322849999764,2010,1462,557
9.435058272998504,1971,1391,506
9.437786694999886,1945,1380,511
9.44051644999854,1935,1335,483
9.443245829999796,1990,1383,529
9.445973001998937,2113,1442,550
9.44870575799905,2095,1458,557
9.45143609599836,2032,1491,582
9.4541630599997,1984,1407,511
9.456939607000095,1952,1392,511
9.459673237999596,1934,1358,495
9.462403117999202,1931,1339,496
9.465130831998977,2058,1424,553
9.467859128999407,2064,1429,547
9.470590466999056,2027,1463,571
9.47331738899993,1982,1419,529
9.476045769999473,1952,1377,509
9.478789816999779,1936,1361,503
9.48151515599966,1930,1312,470
9.48424395299844,2031,1409,544
9.486972582999442,2069,1425,541
9.48970146299871,2034,1454,560
9.492431676999331,1994,1444,545
9.49516068199955,1958,1383,507
9.497889728998416,1938,1373,511
9.50061790199834,1931,1328,480
9.503345239998453,2002,1385,530
9.506072620999475,2113,1440,551
9.508800251000139,2096,1457,556
9.511527964999914,2032,1492,580
9.514296719999038,1984,1407,511
9.5170245169993,1949,1391,511
9.519754147999265,1935,1353,495
9.522485235998829,1931,1341,502
9.525214449999112,2078,1424,555
9.527950454999882,2080,1438,546
9.530680918998769,2033,1472,571
9.533409048999602,1988,1421,531
9.536138262999884,1951,1381,511
9.538866476999829,1937,1361,501
9.54159264899863,1932,1312,470
9.544320445998892,2037,1412,550
9.547051617999387,2079,1427,546
9.549777289999838,2039,1456,562
9.552506169999106,1995,1448,547
9.555237550999664,1959,1386,507
9.557965180998508,1941,1376,506
9.560699185998601,1934,1331,478
9.563429816998905,2023,1392,530
9.566156322000097,2134,1453,554
9.568917493999834,2110,1471,558
9.571646915999736,2041,1502,581
9.574374212999828,1984,1407,507
9.577570594999997,1950,1393,511
9.581017600999985,1936,1359,501
9.58371806499963,1968,1367,526
9.586412194999866,2101,1429,551
9.58910536699841,2069,1453,558
9.59179516399854,2017,1475,567
9.594484002998797,1973,1386,498
9.597175091999816,1946,1384,509
9.599865180000052,1936,1345,487
9.602554727000097,1939,1345,502
9.605243523999889,2127,1439,556
9.607931028998792,2125,1456,551
9.610618909999175,2067,1490,576
9.613306497998565,2002,1438,531
9.61599612899954,1968,1394,510
9.618686550998973,1941,1375,503
9.621376263999991,1930,1327,470
9.624071477999678,2074,1424,549
9.626761857998645,2132,1456,555
9.629451987999346,2096,1479,571
9.632144284998503,2015,1472,560
9.634834581998803,1978,1405,509
9.637523962999694,1945,1392,523
9.64021355099976,1936,1347,494
9.642904389998876,1979,1376,511
9.645592436998413,2151,1457,560
9.648282149999432,2143,1476,563
9.650974696998674,2075,1506,587
9.653663035998761,2007,1443,531
9.656353999998828,1967,1406,511
9.659042671999487,1941,1376,509
9.66173100999913,1932,1327,483
9.664419389999239,2078,1433,556
9.667107895998925,2112,1454,555
9.66979531799916,2071,1477,566
9.672486030998698,2007,1462,554
9.675175786998807,1967,1396,506
9.677867458998662,1936,1386,511
9.680559130998518,1925,1335,485
9.683249427998817,1987,1389,533
9.685938515998714,2135,1454,555
9.688628604999394,2113,1468,560
9.691319234998446,2047,1503,583
9.694008614998893,1992,1418,511
9.696698828998706,1956,1391,510
9.699387375998413,1936,1363,500
9.702075006000086,1932,1332,494
9.704763802999878,2098,1434,560
9.707452266999098,2122,1455,558
9.71013893899908,2059,1472,562
9.712870235998707,2014,1453,546
9.715562407998732,1967,1396,510
9.718277870999373,1943,1365,507
9.720968959998572,1932,1322,475
9.723660089999612,2031,1392,538
9.7263518869986,2113,1441,549
9.72904430899871,2082,1459,560
9.73173468999994,2027,1490,576
9.734424319998652,1981,1398,506
9.737111283999184,1950,1390,511
9.739802288999272,1936,1350,496
9.74249037699883,1933,1345,500
9.74517984099839,2115,1438,557
9.747869679998985,2123,1456,555
9.750559852000151,2066,1488,575
9.753246648999266,2005,1438,535
9.755934861999776,1965,1395,511
9.758623450999949,1939,1378,510
9.761311622998619,1934,1328,475
9.764001669998834,2047,1415,547
9.766690424999979,2115,1450,550
9.769386179999856,2079,1471,561
9.772077394000007,2022,1482,567
9.774766773998635,1973,1398,508
9.777497654999024,1951,1390,511
9.780194367998774,1936,1346,489
9.78288549899844,1959,1366,510
9.785573586999817,2080,1428,549
9.788264258999334,2077,1441,551
9.790954222999062,2029,1475,573
9.793642769998769,1982,1414,526
9.796331732999533,1951,1385,509
9.799019613999917,1936,1357,497
9.80170761899899,1934,1314,477
9.804395957999077,2075,1424,555
9.807084629999736,2115,1451,553
9.80977225999959,2071,1473,575
9.81246205699972,2014,1463,557
9.815152436998687,1973,1395,509
9.81784165099998,1943,1387,511
9.820531239000047,1932,1339,485
9.823219994999818,1993,1389,529
9.825907332999122,2119,1450,551
9.828598213998703,2106,1461,560
9.83128813499934,2043,1495,581
9.83397922399854,1987,1410,511
9.836669603999326,1953,1392,511
9.839357734999794,1936,1365,498
9.84204615699855,1922,1328,491
9.844736953999018,2091,1430,557
9.847427291999338,2111,1449,548
9.850115672999891,2064,1474,574
9.85280567799964,2000,1446,543
9.855505849998735,1967,1393,511
9.858218229999693,1939,1379,511
9.861092276998534,1934,1330,479
9.863783490998685,2060,1411,542
9.866473205000148,2144,1456,554
9.869160084999749,2111,1479,563
9.871849006998673,2043,1501,574
9.874540345999776,1985,1410,511
9.877229392999652,1953,1394,511
9.8799254810001,1936,1357,495
9.88261577799858,1942,1358,511
9.885304116998668,2128,1449,560
9.887993622000067,2125,1461,560
9.890682919000028,2070,1495,582
9.89336696600003,2004,1440,535
9.896059762999357,1959,1397,511
9.898762684999383,1941,1377,511
9.901451939998879,1930,1318,467
9.904140444999939,2103,1424,550
9.906830991998504,2192,1479,562
9.909521538998888,2133,1506,576
9.912210877999314,2060,1504,571
9.914903007998873,1989,1421,511
9.917591388999426,1952,1407,525
9.92028356099945,1933,1353,495
9.922972523998396,1984,1384,528
9.925660113000049,2159,1465,563
9.928351825999925,2143,1482,563
9.931042914999125,2075,1513,589
9.933730378999826,2005,1441,533
9.93641950899837,1965,1407,525
9.939110597999388,1937,1377,503
9.941800644999603,1929,1325,485
9.944490399999268,2128,1449,563
9.947179863998826,2173,1475,560
9.949867534998702,2117,1504,576
9.95255779099898,2035,1485,560
9.955246837998857,1981,1418,511
9.9579351759985,1949,1399,527
9.96062497299863,1935,1347,490
9.963316311999733,2029,1402,536
9.966005401000075,2167,1462,564
9.968695363999359,2142,1488,563
9.971385535998706,2066,1520,589
9.97407475,1999,1427,525
9.976763629998459,1958,1406,526
9.979458218998843,1936,1369,501
9.982145556999967,1927,1340,496
9.9848677709997,2158,1457,566
9.987559526000041,2187,1485,561
9.990272572998947,2117,1517,585
9.992961744999775,2032,1473,551
9.995652625999355,1982,1417,528
9.998341505999633,1943,1395,511
10.001032843998473,1931,1340,487
10.003723640998942,2057,1412,545
10.006413187998987,2151,1470,560
10.009101026998906,2115,1488,565
10.01179186599984,2046,1508,579
10.014481328998954,1987,1416,511
10.017218000999492,1951,1398,524
10.019935547999921,1936,1360,496
10.022625136998613,1943,1360,510
10.025315391998447,2111,1441,559
10.028005730999212,2114,1456,555
10.03070269499949,2062,1489,576
10.03339290799886,1999,1434,531
10.036084412999116,1959,1392,511
10.038773251999373,1939,1373,505
10.0414620069987,1933,1321,473
10.044151512998724,2087,1427,554
10.046839642998748,2147,1459,556
