time,y1,y2,y3
0.0060191369993845,1968,934,454
0.008743393000258948,2064,1108,441
0.01144710599874088,2051,1207,451
0.014138487000309397,2005,1305,495
0.01689457499924174,1969,1278,452
0.019590371999584022,1942,1291,465
0.022283377998974174,1931,1282,458
0.024974215999463922,1929,1273,463
0.027665054998578853,2091,1392,530
0.03035860199997842,2107,1417,528
0.033050731999537675,2059,1456,551
0.035741861998758395,2000,1424,528
0.038437076000263914,1959,1377,500
0.04112858099870209,1936,1366,498
0.04382146199895942,1925,1317,468
0.04651196699887805,1998,1379,523
0.04920588899949507,2062,1423,535
0.0519028939997952,2041,1438,541
0.054601232999630156,1999,1471,560
0.057294446998639614,1963,1382,494
0.059989452000081656,1939,1373,499
0.06268149899915443,1930,1335,480
0.06536812899867073,1929,1331,485
0.06806167600007029,2042,1407,533
0.07075826499931281,2041,1417,530
0.07344439499865985,2005,1446,555
0.07613710899931903,1969,1401,509
0.07883228099854023,1943,1367,495
0.08152645299924188,1923,1354,494
0.08422083299956284,1923,1303,464
0.08691525499853014,2000,1391,531
0.08960605199899874,2032,1404,527
0.09229813999991165,2023,1435,543
0.0950263119993906,1983,1445,547
0.09772631799933151,1952,1369,495
0.10042153099857387,1936,1364,497
0.10312141199938196,1923,1328,474
0.10581483399982972,1945,1349,498
0.10850900599871238,2032,1407,531
0.11119988599966746,2030,1418,531
0.11389180799960741,1995,1453,559
0.11658922999959032,1965,1392,506
0.11927973499950895,1936,1360,496
0.12197044899949105,1927,1345,486
0.12466049599970574,1921,1297,464
0.1273549589986942,2006,1396,538
0.13004358999933174,2028,1402,528
0.1327355119992717,2000,1428,544
0.13542851700003666,1969,1421,528
0.13811981399885553,1942,1361,492
0.14084565299890528,1932,1360,495
0.14354199099943799,1918,1315,467
0.14626199699887366,1970,1363,508
0.14895250199879229,2054,1410,531
0.1516449239989015,2033,1424,531
0.15434034600002633,1995,1459,561
0.15702985099960642,1959,1382,496
0.1597206059996097,1936,1366,496
0.1624099450000358,1925,1337,482
0.16510194999864325,1920,1315,477
0.1677945390001696,2026,1402,538
0.17048646100010956,2037,1409,528
0.17317621599977429,2004,1440,554
0.17586867999852984,1968,1411,527
0.1785629770001833,1938,1363,494
0.1812583149985585,1927,1357,496
0.18395323699951405,1920,1308,464
0.1866450759989675,1968,1365,511
0.18933370599916088,2006,1399,528
0.19202354499975627,1993,1414,533
0.19471175899889204,1967,1442,554
0.19739988899891614,1941,1360,489
0.20008881099965947,1930,1358,494
0.20281581599920173,1920,1328,474
0.2055200300001161,1926,1323,485
0.20821053500003472,2034,1398,533
0.21090520699908666,2033,1409,528
0.21361212899864768,1999,1443,554
0.2163018840001314,1963,1393,506
0.2189928059997328,1938,1361,493
0.22168122800030687,1923,1347,490
0.22437098399859678,1918,1299,449
0.22706440599904454,2017,1393,529
0.22975420199873042,2064,1418,530
0.23244799900021462,2032,1438,545
0.2351420879986108,1987,1447,545
0.23783250999986194,1952,1371,495
0.2405253899996751,1922,1366,496
0.24322256199957337,1919,1326,471
0.24591535899890005,1939,1346,497
0.24860886500027846,2003,1393,524
0.2513032030001341,2010,1408,531
0.25399679200018,1982,1442,558
0.25669617199855566,1952,1383,501
0.2593916360001458,1935,1357,491
0.26208384900019155,1920,1337,487
0.2647774799988838,1917,1295,465
0.2674713599990355,2022,1393,533
0.270162906999758,2054,1411,528
0.27288824599963846,2017,1439,546
0.27558433400008653,1974,1424,528
0.27827813099975174,1941,1365,492
0.2809684699986974,1927,1357,496
0.2836631419995683,1918,1315,464
0.2863559809993603,1962,1362,509
0.28904602699913085,2027,1402,532
0.29173707399968407,2015,1415,529
0.294429288000174,1982,1453,560
0.2971180429995002,1949,1370,495
0.29981267399853095,1927,1357,496
0.30250572099976125,1919,1331,480
0.3051960180000606,1915,1308,476
0.3078894809987105,2013,1394,533
0.3105840279986296,2023,1403,528
0.31327594999856956,1997,1433,547
0.3159654139999475,1963,1402,511
0.318658043999676,1936,1358,494
0.3213504239993199,1923,1350,495
0.32404205499915406,1916,1302,463
0.32673168499968597,1957,1360,511
0.3294222320000699,1995,1391,527
0.3321148209997773,1982,1407,532
0.3348061589986173,1959,1436,547
0.3374990809988958,1936,1354,483
0.3401949199997034,1923,1350,493
0.34288809200006654,1918,1317,475
0.34557697199852555,1916,1318,483
0.3482707269995444,2007,1390,532
0.3509634410002036,2011,1397,528
0.3536644050000177,1983,1429,553
0.3563582850001694,1951,1385,502
0.3590542069996445,1934,1355,490
0.3617441709993727,1920,1344,486
0.3644385509996937,1916,1293,460
0.3671311389989569,2026,1392,529
0.36982106100003875,2075,1419,534
0.37251431699951354,2036,1442,549
0.3752082800001517,1989,1447,549
0.3778998269990552,1950,1375,495
0.38059174899899517,1926,1364,496
0.3832851709994429,1917,1328,471
0.38597442699938256,1935,1344,496
0.3886678489998303,2030,1404,534
0.3913598950002779,2025,1411,528
0.39405140099916025,1986,1449,560
0.39674390599975595,1954,1389,503
0.3994371199987654,1933,1357,493
0.40213070800018613,1918,1340,485
0.4048552139993262,1915,1296,464
0.4075543019989709,2030,1398,539
0.41024984899922856,2069,1417,531
0.4129401879999932,2031,1445,547
0.41563123499872745,1982,1429,532
0.4183232399991539,1946,1371,492
0.42101324499890325,1923,1362,496
0.4237033760000486,1915,1315,467
0.4263937139985501,1956,1361,506
0.42908321999857435,2038,1408,529
0.4317772670001432,2027,1418,531
0.4344722299993009,1986,1453,559
0.4371639860000869,1952,1374,496
0.4398580739998579,1931,1360,496
0.44255224599874055,1915,1331,479
0.4452437509989977,1912,1307,475
0.44793800699881103,2011,1392,531
0.4506309699991107,2022,1403,528
0.4533244759986701,1994,1429,548
0.4560193559991603,1959,1402,522
0.4587152359999891,1935,1359,490
0.46140715799992904,1920,1348,493
0.4640996219986846,1915,1300,463
0.4667962109997461,1974,1365,511
0.469486132999009,2022,1402,528
0.47218351299852657,2002,1418,533
0.4748772259990801,1969,1449,551
0.47756777299946407,1939,1360,486
0.48026090399980603,1922,1355,496
0.4829533669999364,1916,1323,477
0.48564558099860733,1919,1323,487
0.4883350860000064,2032,1398,534
0.4910288829996716,2035,1408,529
0.4937195549991884,2000,1443,553
0.49641372699989006,1959,1394,506
0.49911027399866725,1935,1360,494
0.5018037789996015,1918,1347,489
0.5044973679996474,1911,1296,461
0.5071921229991858,2000,1383,528
0.5098814619996119,2040,1408,528
0.5125751759987907,2015,1426,541
0.5152650559994072,1973,1437,546
0.5179555199993047,1939,1363,491
0.5206451920003019,1922,1359,496
0.5233361549999245,1914,1319,467
0.5260268269994413,1936,1342,496
0.5287178739999945,2044,1406,533
0.5314140039990889,2037,1414,529
0.5341063429987116,1999,1453,559
0.5368170980000286,1957,1392,506
0.5395164789988485,1931,1360,496
0.5422368589988764,1918,1341,485
0.5449307809994934,1911,1296,464
0.5476254949990107,1994,1389,535
0.5503179999996064,2015,1397,528
0.5530102969987638,1990,1424,547
0.5557059689999733,1957,1413,531
0.5583985569992365,1935,1356,488
0.5610919379996631,1920,1349,495
0.5637885260002804,1911,1305,464
0.5664834899998823,1974,1360,507
0.5691747869987012,2071,1412,531
0.5718683340001007,2052,1425,539
0.5745622559988988,2000,1462,561
0.5772526359996846,1955,1381,494
0.5799458080000477,1926,1364,496
0.5826393139996071,1915,1339,482
0.5853299849986797,1910,1312,475
0.5880246569995506,2031,1403,538
0.5907169129986869,2045,1411,529
0.5934095849988807,2007,1442,548
0.5961117979986739,1968,1408,525
0.598815219998869,1936,1363,492
0.6015098509997188,1918,1366,507
0.6042043559991725,1911,1313,476
0.6068988199986052,1962,1371,528
0.6095897830000467,1999,1398,537
0.6122847469996486,1984,1411,545
0.6149796270001389,1964,1442,559
0.6176724659999309,1939,1359,495
0.6203642210002727,1928,1357,496
0.6230576429989014,1919,1326,482
0.625751190000301,1920,1325,497
0.6284433199998603,2007,1388,539
0.6311374919987429,2013,1399,534
0.6338362480000796,1984,1435,560
0.636531295000168,1954,1388,511
0.6392251750003197,1936,1359,498
0.6419173469985253,1926,1346,496
0.6446160189989314,1914,1297,465
0.6473118159992737,1975,1379,536
0.6500039040001866,2015,1396,533
0.6527000759997463,1993,1422,545
0.6553948729997501,1962,1429,545
0.6580872949998593,1936,1359,495
0.6607831759993132,1921,1355,500
0.6634775980000995,1910,1313,478
0.6662014779994934,1935,1340,507
0.6688963579999836,2025,1397,538
0.6715910719995009,2021,1408,534
0.6742866599997797,1986,1446,562
0.676972040999317,1957,1385,505
0.6796677129987074,1936,1360,499
0.6823638009991555,1921,1339,494
0.6850557649995608,1917,1298,475
0.6877488119989721,1976,1386,535
0.69044731699978,1991,1386,530
0.693141238998578,1977,1419,547
0.6958366199996817,1953,1408,530
0.6985297499995795,1930,1353,496
0.7012204629991174,1921,1349,497
0.7039171769993118,1917,1307,471
0.7066138909995061,1941,1347,507
0.7093074379990867,2010,1393,534
0.7120024010000634,2001,1407,539
0.7146967399985442,1969,1444,566
0.7173888699999225,1947,1365,496
0.7200798759986355,1929,1355,502
0.722772797998914,1921,1330,490
0.7254655529995944,1919,1311,487
0.7281573909986037,2018,1394,542
0.7308553969996865,2035,1408,535
0.7335456519995205,2003,1440,560
0.7362377819990797,1969,1407,531
0.7389366629995493,1943,1363,505
0.7416285429990239,1925,1357,502
0.7443232979985623,1919,1306,470
0.7470188039987988,1961,1365,527
0.7497110169988446,1987,1393,535
0.7524064809986157,1983,1408,542
0.7551122779987054,1957,1434,555
0.7578070330000628,1936,1357,492
0.7605017879996012,1929,1357,496
0.7631971689988859,1918,1325,478
0.7658887569996295,1927,1328,496
0.7685829709989775,2036,1400,543
0.7712752259994886,2043,1411,535
0.7739651479987515,2004,1450,561
0.7766576949998125,1968,1398,511
0.7793507839996892,1941,1366,503
0.7820416229988041,1926,1353,499
0.7847340859989345,1920,1302,467
0.7874289249994035,1981,1386,539
0.790274638999108,2003,1397,541
0.7930790190002881,1989,1421,554
0.7957844409993413,1965,1417,538
0.7984823629994935,1938,1359,495
0.8011737429987988,1926,1353,499
0.8039174989989988,1919,1313,479
0.806625670998983,1942,1357,511
0.8093193849999807,1998,1392,534
0.8120151399998576,1991,1399,535
0.8147088949990575,1966,1439,563
0.817402108999886,1944,1362,497
0.8200954059993819,1930,1355,501
0.8227872859988565,1923,1330,489
0.8254798749985639,1922,1305,484
0.8281712549996882,2002,1392,539
0.8308657189991209,2013,1396,533
0.8335567239992088,1984,1429,554
0.8362503539992758,1959,1401,528
0.8389552759999788,1936,1359,496
0.841647405999538,1925,1350,498
0.8443431199993938,1921,1305,467
0.8470369589995244,1955,1360,527
0.8497285060002469,1983,1391,528
0.8524225529999967,1973,1403,538
0.8551173079995351,1955,1431,553
0.8578381469997112,1938,1354,493
0.8605395689992292,1923,1354,502
0.8632348659994022,1923,1323,483
0.8659277459992154,1931,1325,496
0.868623292999473,2001,1391,537
0.8713227569987794,2002,1397,531
0.8740100529994379,1979,1434,560
0.8767101839985116,1951,1387,510
0.8794062719989597,1935,1359,496
0.8820980279997457,1924,1345,496
0.8848018659991794,1923,1296,465
0.8874961219989927,1984,1381,537
0.8902204189998884,2011,1396,532
0.8929172989992367,1994,1422,545
0.8956130539991136,1967,1425,545
0.8983101429985254,1943,1360,496
0.9010033569993539,1930,1359,502
0.9036988199986808,1923,1318,478
0.9063943669989385,1937,1345,505
0.9090862470002321,2000,1392,533
0.9117808779992629,1995,1398,533
0.9144758829988859,1970,1437,561
0.9171680130002642,1949,1377,507
0.9198612269992736,1935,1357,501
0.9225538989994675,1924,1338,491
0.9252441129992803,1921,1299,477
0.9279366599985224,1971,1382,540
0.9306458319988451,1985,1389,530
0.9333410039998853,1968,1413,547
0.9360374259995297,1953,1401,530
0.9387329719993431,1935,1353,492
0.9414243939991138,1930,1346,496
0.9441201909994561,1923,1307,474
0.9468150299999252,1941,1355,511
0.9495020769991243,1978,1382,529
0.9521951659990009,1974,1394,528
0.954895838000084,1957,1435,560
0.9575975930001732,1938,1358,491
0.9602949729996908,1932,1352,499
0.9629901869993773,1924,1328,486
0.9656835259993386,1922,1314,490
0.9683795719993213,1968,1381,531
0.9710771609989024,1975,1383,528
0.973769332998927,1962,1418,558
0.9764634219991422,1946,1384,511
0.9791589689993998,1935,1350,495
0.9818516409995937,1927,1344,496
0.9845465210000839,1922,1298,468
0.9872456929988402,1967,1365,528
0.9899393229989073,2000,1392,534
0.9926383289985097,1990,1410,544
0.9953345009998884,1968,1437,555
0.9980256719991303,1945,1360,496
1.0007752609999443,1934,1360,502
1.0035081829992123,1925,1327,483
1.0062313549988176,1935,1335,501
1.0089240269990114,1997,1392,533
1.01162015799855,1989,1396,532
1.0143157049988076,1968,1431,560
1.017022377000103,1947,1378,509
1.0197381319994747,1936,1355,499
1.0224350959997537,1929,1340,495
1.025126016998911,1925,1294,466
1.0278241479991266,1998,1392,541
1.0305194859993208,2013,1399,540
1.0332129919988802,2000,1424,553
1.035907663999751,1969,1422,541
1.0386005860000296,1947,1360,496
1.0412923829990177,1931,1359,499
1.0439883879989793,1925,1317,479
1.0466849349995755,1952,1359,511
1.049379689999114,1997,1392,532
1.052077570999245,1989,1401,537
1.0547809509989747,1967,1440,561
1.057476123000015,1949,1365,496
1.0601681699990877,1935,1358,498
1.0628628829999798,1931,1332,487
1.065554221999264,1925,1311,486
1.0682483519995003,1986,1389,542
1.0709419409995462,1995,1393,530
1.0736348629998247,1981,1423,556
1.0763313679999555,1959,1399,528
1.079025498998817,1941,1359,496
1.0817190870002378,1931,1351,496
1.0844156759994803,1926,1309,471
1.087118722998639,1968,1367,527
1.0898117699998693,2034,1407,539
1.0925082329995348,2018,1424,546
1.0952041969994752,1987,1459,563
1.097895494000113,1956,1373,499
1.1005897489994823,1937,1367,507
1.1032826709997607,1930,1333,491
1.105975259999468,1927,1328,497
1.1086687649985834,1994,1392,537
1.1113619369989465,1999,1398,529
1.1140596509994793,1981,1434,560
1.1167564480001602,1957,1391,511
1.1194502449998254,1941,1358,498
1.1221409999998286,1933,1346,496
1.1248753799991391,1926,1302,466
1.1275759269992705,1977,1381,535
1.1302713489985763,1999,1394,533
1.1329635629990662,1985,1413,547
1.1356591929998103,1966,1424,546
1.138355323999349,1943,1359,493
1.1410488709989295,1933,1357,499
1.143743500999335,1931,1322,478
1.1464427979990433,1936,1338,505
1.1491382610001892,2015,1395,537
1.1518357669992838,2015,1408,539
1.1545300639991183,1987,1446,562
1.1572229859993968,1962,1386,510
1.1599185329996544,1939,1360,499
1.1626147049992142,1931,1343,496
1.1653062099994713,1923,1303,477
1.1680036739999196,2006,1397,546
1.1706996369994158,2034,1408,535
1.1733904339998844,2007,1437,553
1.176084439999613,1978,1424,541
1.1787812359998497,1951,1372,500
1.181476574998669,1936,1361,501
1.184172329998546,1931,1323,475
1.186865460998888,1953,1365,525
1.1895594659999915,2013,1402,533
1.1922537209993607,2003,1411,539
1.1949471850002737,1980,1449,562
1.1976387739996426,1952,1370,495
1.2003354459993716,1936,1361,502
1.203029742999206,1933,1334,488
1.2057219559992518,1927,1318,485
1.2084177109991288,2019,1399,541
1.2111146749994077,2032,1408,534
1.2138067220002995,2001,1440,555
1.2165020609991188,1969,1408,527
1.2192119409992301,1946,1366,501
1.2219126130003133,1935,1359,503
1.2246111179993022,1914,1299,463
1.2273063319989888,1969,1373,530
1.2299972539985902,2006,1399,537
1.232688217998657,1999,1417,544
1.2353840149989992,1971,1443,555
1.2380811450002511,1950,1363,495
1.2407747329998529,1936,1360,505
1.2434729050000897,1927,1328,483
1.246199743998659,1935,1332,495
1.2488947909987473,2016,1399,541
1.2515919629986456,2022,1408,535
1.2542890929998975,1993,1442,561
1.2569828069990763,1965,1392,511
1.25967789599963,1943,1364,501
1.2623731089988723,1935,1349,495
1.2650662399992143,1925,1305,465
1.267760744998668,1991,1392,539
1.270455709000089,2029,1405,537
1.2731498389985063,2002,1428,550
1.2758463859991025,1977,1436,547
1.278540391000206,1951,1367,497
1.281232313000146,1939,1362,506
1.2839296929996635,1932,1328,485
1.2866244899996673,1957,1355,511
1.2893158289989515,2029,1406,541
1.292010293000203,2018,1414,540
1.2947049229987897,1988,1454,567
1.2973964279990469,1967,1388,507
1.3000910589998966,1943,1360,496
1.3027866889988218,1933,1345,496
1.3054810689991427,1927,1309,479
1.3081784489986603,1993,1395,543
1.310874621000039,2010,1399,537
1.3135676269994292,1987,1425,551
1.3162612989999616,1962,1411,529
1.318958511999881,1945,1360,495
1.3216519339985098,1931,1356,500
1.3243438150002476,1928,1314,475
1.3270370279988128,1962,1363,526
1.3297293670002546,2005,1394,535
1.3324205389999406,2000,1408,535
1.3351140859995212,1974,1447,566
1.3378077580000536,1953,1365,496
1.3405053459991905,1936,1360,502
1.3432019769988983,1932,1333,490
1.345894481999494,1927,1323,491
1.3485895710000477,2011,1398,543
1.3512862429997767,2019,1405,533
1.353978705999907,1999,1438,559
1.356672752999657,1968,1405,525
1.3593671749986243,1943,1366,496
1.3620591799990507,1936,1359,500
1.364753601999837,1927,1311,473
1.367447065998931,1984,1377,530
1.3701405709998653,2029,1408,537
1.372867784999471,2009,1425,546
1.3755665399985446,1982,1450,560
1.3782639619985275,1957,1371,496
1.3809557589993346,1936,1363,509
1.3836505559993384,1934,1331,486
1.3863463529996807,1936,1341,501
1.3890373169997474,1994,1393,539
1.3917327799990744,1995,1399,530
1.3944272019998607,1977,1433,559
1.3971182079985738,1957,1383,510
1.3998131299995293,1941,1358,497
1.4025087600002735,1927,1342,491
1.4052385149989277,1926,1299,465
1.4079447289987002,1987,1389,540
1.4106436929996562,2020,1403,533
1.413335739998729,2001,1426,550
1.4160315369990712,1975,1431,540
1.4187272090002807,1951,1367,496
1.4214202969997132,1938,1361,502
1.4241131359995052,1930,1325,476
1.4268056829987472,1950,1358,511
1.4295094379995135,2019,1403,537
1.4322276929997315,2015,1415,539
1.43494278199978,1985,1456,564
1.4376410789991496,1963,1381,503
1.4403359179996187,1940,1367,502
1.4430266309991566,1933,1342,493
1.4457168869994348,1931,1318,486
1.44840855899929,1980,1392,540
1.4511022719998437,1987,1392,529
1.4537964029987052,1970,1420,553
1.4564905329989415,1954,1401,528
1.4591844549995585,1939,1358,499
1.4618760849989485,1933,1351,505
1.4645692149988463,1933,1310,473
1.4672672209999291,1968,1365,525
1.4699613089997001,2017,1402,534
1.4726600229987525,2003,1417,538
1.4753531119986292,1975,1453,560
1.4780398669990973,1955,1369,496
1.4807332469990797,1936,1362,503
1.4834291689985548,1933,1334,485
1.4861212999985582,1935,1329,493
1.4888428049998765,1999,1395,538
1.4915411019992462,2000,1398,535
1.494256398998914,1980,1431,560
1.496951695999087,1963,1392,523
1.499650533998647,1945,1360,500
1.50234583099882,1933,1353,498
1.5050388370000292,1929,1299,464
1.5077317999985098,1999,1390,535
1.5104288889997406,2033,1410,535
1.5131213109998498,2015,1429,550
1.5158168580001075,1983,1445,557
1.5185099049995188,1951,1369,499
1.5212013689997548,1936,1365,508
1.5238957490000757,1933,1331,482
1.5265887539990217,1946,1348,507
1.5292849679990468,2032,1407,541
1.5319809729990084,2032,1418,541
1.534670852999625,2001,1456,565
1.537362649998613,1968,1395,506
1.540053196998997,1948,1369,504
1.542749119000291,1936,1350,496
1.545441041000231,1931,1298,473
1.5481365050000022,1981,1392,541
1.5508322599998792,1997,1394,534
1.5535181399991416,1975,1422,551
1.5562116040000546,1959,1416,538
1.5589089839995722,1943,1360,496
1.5616035729999567,1920,1346,493
1.5643009529994742,1929,1317,475
1.5669959999995626,1952,1357,511
1.5696890889994393,2005,1394,537
1.5723836359993584,2000,1405,536
1.5750766410001233,1978,1444,565
1.5777665629993862,1955,1373,497
1.5804595680001512,1939,1359,501
1.5831535319994146,1935,1338,490
1.5858446209986141,1930,1315,487
1.588538668000183,1984,1392,541
1.5912320899988117,1995,1392,533
1.59392392799964,1978,1424,555
1.5966203499992844,1962,1398,531
1.5993128559985053,1943,1359,498
1.6020017779992486,1936,1355,496
1.6047086580001633,1930,1312,471
1.607404537999173,1971,1361,511
1.6100955849997263,2007,1399,541
1.6127890899988415,1996,1413,544
1.615483970999776,1970,1451,565
1.618204225998852,1952,1365,496
1.6208971059986652,1939,1363,503
1.6235909030001494,1933,1331,488
1.6262821589989471,1931,1329,496
1.6289734969996061,2006,1397,544
1.6316647530002228,2019,1407,537
1.6343552159996761,1993,1441,559
1.6370398050003132,1968,1393,525
1.6397319349998725,1942,1363,501
1.6424287739991996,1936,1354,501
1.6451213210002607,1932,1307,470
1.6478164089985512,1971,1382,535
1.650510289999147,1987,1394,537
1.6532009619986638,1984,1415,546
1.655895674999556,1967,1429,553
1.6585894309992,1947,1360,496
1.6612818939993304,1936,1360,506
1.663977733000138,1931,1325,483
1.666674862999571,1941,1346,507
1.6693679099989822,1997,1393,535
1.6720644569995784,1993,1402,535
1.674755545998778,1978,1439,560
1.6774460090000503,1953,1379,511
1.6801407650000328,1937,1360,499
1.6828336029993807,1935,1343,496
1.6855282750002516,1928,1297,476
1.6882224469991343,1998,1392,544
1.6909194519994344,2027,1405,538
1.693611458000305,2003,1433,557
1.696303712998997,1978,1425,544
1.698996384999191,1953,1367,500
1.7016885989996808,1939,1363,508
1.7043817289995786,1935,1325,482
1.7070764429990959,1953,1362,527
1.7097650729992893,2000,1392,530
1.7124581199987006,1989,1406,537
1.7151505839992751,1968,1442,562
1.7178404219994263,1952,1371,497
1.720533968999007,1936,1360,499
1.7232284740002797,1934,1335,489
1.7259216049988026,1928,1313,482
1.7286121519991866,2003,1395,544
1.7313020319998031,2029,1405,535
1.7346881220000796,2006,1437,557
1.7374685019985918,1973,1415,533
1.7401757989991893,1947,1367,503
1.7428714299985586,1936,1348,496
1.7455649769999582,1930,1303,473
1.7482569399999193,1981,1392,540
1.7509451119985897,2000,1395,531
1.7536356179989525,1988,1424,545
1.7563308729986602,1965,1419,538
1.7590244200000598,1943,1360,496
1.761713466999936,1936,1359,498
1.7644053889998759,1930,1321,473
1.7670929769992654,1946,1360,511
1.7697803579994797,1991,1392,532
1.7724836959987442,1990,1401,530
1.7751870350002719,1968,1441,560
1.7778800819996832,1952,1369,497
1.7805720460000884,1936,1360,497
1.7832615930001339,1936,1334,489
1.7859516389999044,1935,1313,486
1.788643060999675,1987,1392,542
1.7913333999986207,2000,1397,530
1.7940211139994062,1982,1426,555
1.7967099109991977,1963,1402,529
1.7993991240000469,1943,1360,496
1.8020862550001766,1936,1355,500
1.8047758849988895,1930,1313,475
1.80746834799902,1959,1361,524
1.8101643949994468,2004,1397,533
1.8129106090000278,1995,1407,533
1.8156061979989317,1963,1439,548
1.818296035999083,1954,1363,497
1.8209935830000177,1939,1362,503
1.823682796999492,1935,1333,486
1.8263703859993257,1935,1330,496
1.829061307998927,1998,1394,539
1.8317525629990996,2000,1399,534
1.8344425269988278,1982,1428,560
1.8371333649993176,1955,1391,511
1.8398213290001877,1941,1360,502
1.8425133759992605,1931,1353,499
1.8452047559985658,1933,1306,470
1.8478958859996055,1978,1383,535
1.850584058000095,2016,1399,534
1.8532729799990193,1998,1423,548
1.8559625269990647,1975,1440,555
1.8586571579999145,1951,1365,496
1.861349495999093,1939,1362,502
1.864039418000175,1934,1329,483
1.8667352149986982,1943,1345,506
1.869422054000097,2039,1408,545
1.8721272259990656,2041,1420,542
1.8748286479985836,2002,1456,565
1.8775194449990522,1962,1397,521
1.8802111169989075,1947,1371,505
1.8829005799998413,1936,1353,496
1.885588502000246,1932,1306,474
1.8882764239988319,1983,1394,537
1.8909664289985813,1998,1399,532
1.8936538099987956,1979,1423,547
1.896342439998989,1965,1421,542
1.8990307369986112,1947,1361,496
1.9017188669986353,1936,1360,503
1.9044069979991036,1932,1323,480
1.9071019200000592,1945,1357,511
1.9098024670001905,2023,1404,539
1.9124981799996021,2023,1414,540
1.9151881849993515,1993,1450,560
1.9178771909992065,1969,1387,502
1.9205658629998652,1947,1368,503
1.9232544930000586,1936,1346,496
1.9259429979993001,1936,1318,483
1.928631544999007,2003,1399,543
1.931321008998566,2023,1407,535
1.9340037219990336,2002,1435,557
1.9366942689994175,1973,1417,531
1.9393860660002247,1955,1369,496
1.9420752379992337,1939,1364,507
1.944764743999258,1934,1321,477
1.9474517489998107,1949,1366,527
1.9501377959986712,1974,1392,533
1.9528647600000113,1968,1402,537
1.9555543899987242,1951,1437,562
1.9582746449996193,1937,1357,495
1.9609681509991788,1931,1355,499
1.9636576559987589,1927,1327,484
1.966348243999164,1929,1322,490
1.9690370829994208,2000,1391,538
1.9717415469986008,2002,1395,530
1.9744443439994939,1987,1432,558
1.9771364739990531,1963,1393,511
1.9798274379991199,1943,1360,497
1.9825166099999478,1931,1355,497
1.9852039479992527,1935,1309,469
1.9878919120001228,1991,1385,534
1.990581416999703,2046,1415,541
1.9932673389994306,2032,1435,550
1.995956261000174,1995,1456,560
1.9986446000002616,1965,1379,499
2.0013886879987695,1945,1375,509
2.004107901999305,1934,1339,489
2.0068054490002396,1937,1348,505
2.0094999129996722,2006,1402,543
2.0121894179992523,2007,1408,535
2.014878547999615,1986,1442,563
2.0175651789995754,1959,1385,511
2.020252766998965,1947,1363,502
2.022941355999137,1935,1347,496
2.025640277999628,1930,1301,469
2.0283679909989587,1986,1392,544
2.0310780799991335,2014,1406,539
2.0337681689998135,1997,1424,553
2.0364621319986327,1968,1424,543
2.03915259599853,1949,1362,497
2.041839892999633,1936,1362,502
2.0445300649989804,1929,1323,479
2.0472181949990045,1955,1360,511
2.0499055339987535,2026,1403,541
2.052593872000216,2000,1403,529
2.05528491899895,1991,1454,569
2.057983257998785,1962,1382,505
2.060676721999698,1943,1365,506
2.063366934999067,1936,1344,491
2.066058565998901,1932,1316,485
2.068749570998989,1990,1394,542
2.0727158289992076,2002,1395,531
2.0754222919986205,1986,1429,555
2.0781128389990045,1957,1376,507
2.080846885999563,1943,1366,509
2.0835401419990376,1934,1339,493
2.0862586469993403,1930,1323,490
2.0889494019993435,2007,1401,544
2.091640782999093,2019,1403,537
2.094329954999921,1997,1436,560
2.097020542998507,1968,1408,529
2.0997102149995044,1951,1363,502
2.1023984699986613,1936,1358,501
2.1050852259995736,1934,1312,477
2.107777563998752,1970,1371,528
2.1104700279993267,2000,1397,535
2.1131569079989276,1986,1415,541
2.1158451639985287,1968,1444,558
2.1185332109998853,1947,1362,496
2.1212196739998035,1936,1362,501
2.1239064290002716,1931,1330,487
2.126608851000128,1926,1323,489
2.1293087319991173,1984,1392,535
2.1319955290000507,1989,1395,529
2.13468340899999,1974,1429,560
2.137369205998766,1958,1387,510
2.1400586279996787,1944,1359,499
2.1427479249996395,1935,1350,496
2.1454358880000655,1933,1300,468
2.148124518998884,1969,1379,535
2.1508160659996065,1991,1393,532
2.1535029879996728,1977,1413,544
2.156191325999316,1966,1426,550
2.158885331999045,1947,1360,498
2.161576669999704,1936,1359,504
2.164268591999644,1932,1327,481
2.16695763899952,1943,1345,506
2.1696447689992056,2015,1399,543
2.17233398299868,2013,1408,538
2.1750215719985135,1990,1445,563
2.1777078269988124,1965,1392,511
2.1803949989989633,1947,1363,501
2.183082170999114,1935,1348,496
2.185769967998567,1931,1303,470
2.1884584729996277,1988,1392,541
2.191147686999102,2007,1398,535
2.193836442000247,1994,1424,551
2.1965277809995314,1967,1424,541
2.199217827999746,1949,1363,499
2.2019055410000874,1937,1363,503
2.204593712998758,1917,1313,469
2.207312301999991,1951,1360,511
2.2100201819994254,2007,1403,538
2.212734853999791,2005,1409,537
2.215428317998885,1978,1449,560
2.2181094480001775,1959,1376,496
2.220834911999191,1941,1363,503
2.2235078339999745,1935,1341,495
2.226269588998548,1933,1316,485
2.228970344998743,2001,1398,540
2.2316760159992555,2017,1403,533
2.2343749800002115,1999,1433,551
2.237064234999707,1968,1409,527
2.239775740999903,1954,1366,497
2.242471329000182,1937,1358,499
2.2451620009996986,1934,1314,470
2.247854714998539,1974,1374,528
2.250543636999282,2005,1401,537
2.2532366839986935,1997,1417,544
2.255930855999395,1971,1447,560
2.258621069999208,1952,1363,496
2.2613067829988722,1941,1363,508
2.263994580000144,1935,1333,486
2.266682043999026,1930,1331,496
2.269368756999029,1998,1393,533
2.272057345999201,2000,1397,528
2.2747490179990564,1979,1434,559
2.2774398569999903,1962,1386,509
2.280133444999592,1943,1360,496
2.2828218249997008,1936,1350,497
2.285507663998942,1925,1302,469
2.2881961690000026,1980,1382,537
2.2908823830002802,2009,1398,535
2.293569346998993,1998,1420,549
2.2962710189985955,1971,1433,549
2.298969149000186,1953,1362,496
2.301657903999512,1941,1364,505
2.3043460339995363,1933,1329,481
2.3070329559996026,1946,1349,507
2.3097198369996477,2004,1398,536
2.3124072999999044,2000,1408,534
2.315095346999442,1981,1441,560
2.317780685998514,1957,1390,511
2.320467732999532,1943,1361,503
2.3231568629998947,1934,1346,496
2.3258429519992205,1935,1302,467
2.3285412899986113,1991,1393,539
2.331229211999016,2015,1402,534
2.3339172179985326,2000,1425,549
2.3366074730001856,1969,1425,541
2.3392969779997657,1952,1366,500
2.3419874840001285,1940,1365,503
2.344674946998566,1935,1325,477
2.34736366099969,1941,1356,510
2.350050082999587,1989,1393,535
2.352738004999992,1988,1403,533
2.3554251349996775,1972,1435,560
2.3581104739987495,1953,1373,502
2.3608372709986725,1939,1360,499
2.3635291089995007,1932,1340,491
2.3662504900003114,1930,1313,481
2.3689437869998073,1984,1392,543
2.371634166998774,1995,1392,533
2.3743241719985235,1982,1424,551
2.377012510998611,1965,1406,528
2.3797023909992276,1947,1360,497
2.382389604999844,1938,1350,498
2.385076651999043,1933,1315,474
2.387763823999194,1968,1367,523
2.390456371000255,2006,1396,539
2.3931520429996453,1997,1411,541
2.3958438399986335,1978,1451,565
2.398532385999715,1955,1367,496
2.401223807999486,1939,1363,505
2.4039148969986854,1935,1333,491
2.406604443998731,1934,1327,496
2.409254782998687,2025,1401,543
2.4118834539985983,2033,1410,539
2.4145113349986786,1999,1433,551
2.41713634000007,1978,1409,528
2.419763302999854,1954,1374,503
2.422392182999829,1941,1361,507
2.425018230000205,1936,1323,476
2.427649401999588,1968,1364,511
2.4302769909991184,2016,1408,532
2.432903578999685,2005,1419,540
2.4355307509995328,1981,1456,566
2.438156963999063,1958,1378,498
2.4408102609995694,1941,1363,502
2.443438516000242,1932,1344,494
2.446065104999434,1936,1311,479
2.4486902769986045,1991,1393,539
2.451318323999658,2006,1401,528
2.45394436999959,1987,1425,550
2.456572833998507,1968,1424,541
2.4592012140001316,1954,1364,496
2.461827469000127,1937,1361,502
2.464456057999996,1931,1328,480
2.467085895999844,1941,1350,503
2.469712026999332,1986,1392,535
2.472342822999053,1984,1393,531
2.474975203998838,1968,1430,559
2.477600749998601,1953,1381,511
2.4802302139996755,1937,1359,499
2.4828597189989523,1936,1349,497
2.4854866829991806,1935,1303,467
2.4881149789998744,1991,1382,531
2.490742859999955,2034,1408,533
2.4933682399987447,2014,1425,550
2.4959961200002,1984,1456,560
2.4986268749999,1961,1373,496
2.501254296999832,1942,1371,507
2.503882259999955,1936,1341,489
2.5065095989994006,1919,1319,485
2.5091373119994387,2005,1399,542
2.5117644009988,2014,1406,532
2.514392613999007,1993,1433,553
2.5170192859986855,1968,1410,529
2.519646457998533,1952,1367,498
2.5222740469998826,1936,1360,497
2.5248996350001107,1935,1323,477
2.5275277649998316,1954,1363,523
2.5301562289987487,1997,1392,528
2.5328095669992763,1991,1408,535
2.535437822998574,1972,1445,563
2.5380642029995215,1953,1379,499
2.5406904999999824,1945,1361,502
2.5433160880002106,1936,1345,491
2.5459422179992544,1933,1302,470
2.5485705149985733,1997,1394,538
2.5512036039999657,2032,1408,534
2.5538305249992845,2010,1433,551
2.556459821998942,1983,1440,550
2.559086911000122,1959,1371,501
2.5617139159985527,1943,1370,506
2.564343337999162,1936,1330,482
2.5669703429994115,1936,1345,507
2.5695983479999995,2005,1399,546
2.5722263119987474,2006,1408,539
2.5748541920002026,1987,1441,560
2.577480904999902,2000,1395,523
2.5801086189985654,1949,1364,501
2.5827364569995552,1937,1359,500
2.585362586998599,1936,1310,469
2.587990426000033,1979,1375,526
2.5906178479999653,2015,1405,534
2.5932448109997495,2003,1422,543
2.5958746500000416,1977,1455,566
2.598502572000143,1958,1374,497
2.6011284519991023,1947,1365,505
2.6037552899997536,1936,1344,491
2.6063823369986494,1936,1321,485
2.6090568009985873,1995,1395,538
2.611784972999885,2000,1399,530
2.614511727999343,1985,1426,550
2.6172361499993713,1963,1407,526
2.619962738999675,1943,1360,496
2.6226891609985614,1931,1355,498
2.625427375000072,1922,1311,467
2.6281579629994667,1950,1362,528
2.630886509999982,1977,1389,529
2.633611306999228,1970,1403,537
2.636336728999595,1958,1428,547
2.6390632759994332,1945,1355,491
2.6417886149993137,1937,1357,497
2.644515787000273,1936,1326,479
2.647244583999054,1941,1343,503
2.6499690059990826,2031,1405,540
2.65269663700019,2033,1414,539
2.6554233089991612,2000,1456,561
2.6581507720002264,1970,1394,511
2.6609349029986333,1953,1372,502
2.6636674080000375,1937,1346,495
2.666398121999009,1936,1316,483
2.669122293998953,2001,1401,543
2.6718497989986645,2019,1408,535
2.6745773459988413,1991,1437,555
2.6773016850002023,1969,1411,528
2.6800286489997234,1947,1365,497
2.682756361999054,1938,1360,502
2.6854816590002883,1935,1311,469
2.688208247998773,1972,1375,529
2.6909392119996483,2009,1402,537
2.6936663420001423,1999,1421,546
2.696393889000319,1977,1443,557
2.699122811000052,1955,1366,496
2.704040653999982,1937,1363,503
2.7067772849986795,1933,1314,494
2.709507539999322,2000,1386,538
2.712238795000303,2006,1394,535
2.714967258998513,1985,1428,555
2.717692513999282,1965,1392,511
2.7204200609994587,1946,1360,495
2.7231508169988956,1936,1351,496
2.7258725720002985,1935,1304,466
2.72860328599927,1984,1389,540
2.731339374999152,2013,1401,533
2.7340696299997944,1998,1418,544
2.7367964269997174,1973,1429,543
2.7395230989986885,1952,1367,496
2.7422861049999483,1938,1361,503
2.7450150679997023,1935,1326,479
2.747742739999012,1955,1361,511
2.7504688289991464,2003,1398,531
2.753194500999598,1997,1406,537
2.75591883999914,1973,1446,560
2.7586473029987246,1939,1357,490
2.761371392000001,1938,1361,503
2.7640990219988453,1935,1337,490
2.7668254029995296,1933,1326,491
2.7695488659992407,1982,1392,538
2.7722767049999675,1986,1394,531
2.774999751998621,1974,1427,555
2.7777233830001933,1957,1389,511
2.7804509709985723,1941,1360,497
2.783178517998749,1936,1350,496
2.7859012319986505,1935,1303,467
2.788626153998848,1983,1387,541
2.7913516179996805,2007,1402,531
2.7940752059985243,1993,1423,548
2.7967995869985316,1968,1426,547
2.7995255919995543,1949,1363,499
2.8022913059994607,1938,1362,503
2.805018019998897,1931,1327,477
2.8077459420001105,1959,1362,523
2.810487363998618,2013,1403,537
2.813176035999277,2005,1412,538
2.8158644159993855,1979,1451,563
2.8185545050000655,1958,1372,498
2.821239634999074,1943,1361,505
2.823927764999098,1939,1339,493
2.8266145620000316,1934,1321,487
2.82929998399959,2000,1395,542
2.831986572999085,2011,1403,530
2.834671910999532,1993,1435,559
2.837356916999852,1968,1401,511
2.840042796999114,1952,1367,500
2.842731968999942,1938,1360,506
2.845421723999607,1935,1314,477
2.8481080629990174,1969,1371,528
2.8507972759998665,2000,1398,535
2.8534839900003135,1986,1411,545
2.856170162000126,1968,1449,568
2.85886120899886,1950,1363,497
2.8615524639990326,1938,1361,504
2.8642435940000723,1936,1332,491
2.86694630799866,1931,1328,490
2.8696340219994454,1998,1392,534
2.872320984999533,2003,1399,531
2.875011281999832,1984,1433,560
2.877699037999264,1959,1392,511
2.8803870430001552,1945,1360,497
2.8830785899990587,1937,1353,497
2.885769052998512,1935,1310,467
2.8884579339992342,1983,1381,534
2.8911448969993216,2015,1403,536
2.8938352360000863,1997,1422,547
2.8965264079997723,1973,1441,556
2.8992157880002196,1952,1366,498
2.901903209998636,1939,1364,507
2.9045907569998235,1934,1330,485
2.90727738699934,1941,1344,507
2.90996826799892,2005,1397,538
2.9126562729998113,2001,1405,534
2.91534465299992,1982,1439,555
2.9180307839997113,1958,1389,511
2.920718371999101,1942,1360,502
2.9234062939995056,1935,1347,496
2.926092007999614,1933,1302,465
2.928781845999765,1983,1391,541
2.9314711850001913,2002,1398,531
2.934158939999179,1994,1423,545
2.936876529000074,1971,1426,543
2.9395656589986174,1947,1355,489
2.9422526649996144,1937,1363,503
2.944937502999892,1936,1326,482
2.947623133999514,1957,1357,511
2.950309013998776,2025,1405,542
2.9529950189989904,2019,1413,538
2.9556817739994585,1993,1452,561
2.958370737998848,1966,1391,503
2.9610588679988723,1945,1367,505
2.96374720699896,1933,1345,496
2.966435795999132,1932,1311,477
2.969125883999368,2001,1397,541
2.9718162230001326,2015,1405,532
2.974513560999185,1989,1431,553
2.9772014829995896,1968,1415,537
2.979888238998683,1951,1367,499
2.982574701998601,1938,1361,505
2.9852588739995554,1931,1321,480
2.987947546000214,1956,1366,528
2.9906351350000477,1986,1394,533
2.9933212649993948,1983,1402,536
2.996008353999059,1966,1442,562
2.998695358999612,1947,1366,497
3.001382405998811,1938,1360,502
3.0041256200001953,1935,1333,490
3.0068429999992077,1930,1322,487
3.0095349219991476,1983,1392,536
3.012225718999616,1988,1392,531
3.014914223998858,1971,1424,550
3.017602187999728,1953,1393,511
3.0202899019986944,1942,1360,498
3.0229763649986126,1936,1351,498
3.0256637450002017,1936,1311,473
3.028350500999295,1968,1369,522
3.0310378389986,1995,1394,535
3.0337358449996827,1984,1410,542
3.0364378499998566,1965,1435,559
3.0391315639990353,1951,1360,495
3.0418188189996727,1936,1354,499
3.0445058659988717,1927,1328,487
3.047193870999763,1936,1334,498
3.0498797099990043,2023,1403,542
3.052574506999008,2028,1410,534
3.0552642619986727,2000,1449,559
3.0579512669992255,1968,1396,525
3.0606419389987423,1949,1369,499
3.063332570000057,1936,1358,499
3.0660234079987276,1933,1309,467
3.068714621998879,1969,1387,537
3.071403377000024,1994,1395,529
3.0740906319988426,1981,1417,542
3.0767793459999666,1965,1426,546
3.079467184999885,1946,1360,496
3.0821553569985554,1936,1360,504
3.0848892369995156,1934,1327,483
3.0875782839993917,1947,1347,510
3.090267538998887,1994,1394,531
3.092954378000286,1993,1398,531
3.0956437999993796,1969,1438,558
3.098334304999298,1955,1380,506
3.101023768998857,1939,1360,499
3.1037131489993044,1936,1342,495
3.1064011540001957,1934,1301,473
3.1090868259998388,1981,1390,538
3.1117812899992714,1991,1392,530
3.114470586999232,1979,1418,547
3.1171570919996157,1960,1412,533
3.119845555998836,1942,1359,496
3.122533185998691,1935,1357,499
3.125219149998884,1936,1315,475
3.1279077799990773,1951,1359,511
3.130597534998742,2014,1398,540
3.133286373998999,2005,1410,537
3.135975129000144,1985,1451,567
3.138666883998667,1958,1377,501
3.141349472998627,1943,1365,499
3.1440376449991163,1934,1333,485
3.146737191998909,1934,1319,486
3.1494249059996946,2009,1397,544
3.152113993999592,2029,1407,537
3.1548015829994256,2002,1437,560
3.157487921000211,1973,1413,529
3.1601794269990933,1951,1368,501
3.1628668069988635,1936,1361,506
3.165551353999035,1935,1319,475
3.168239609000011,1963,1369,526
3.1709286979985336,1988,1395,533
3.1736162029992556,1984,1408,542
3.1763046249998297,1967,1447,567
3.1789930049999384,1949,1361,496
3.1816797189985664,1940,1360,503
3.184369890999733,1935,1330,482
3.1870573549986148,1934,1325,491
3.1897434849997808,2018,1398,541
3.1924309489986626,2031,1408,531
3.195121912000104,2003,1443,560
3.1978100839987746,1970,1406,511
3.2005004229995393,1946,1371,502
3.203190469999754,1939,1360,499
3.205878142000074,1933,1312,470
3.208568063999337,1968,1382,531
3.211259526999129,1999,1401,532
3.213945366000189,1986,1417,542
3.216634037999029,1967,1439,551
3.2193215009992855,1947,1361,491
3.2220071729989286,1939,1360,498
3.22469413699946,1931,1329,479
3.2273829339992517,1938,1340,498
3.2300711480002064,2013,1401,538
3.2327596109989827,2019,1408,537
3.2354481169986684,1993,1443,561
3.2381344549994537,1965,1392,511
3.24085795999963,1945,1366,509
3.2435482569999294,1936,1353,496
3.2462590129998716,1931,1297,463
3.2489478930001496,1995,1395,543
3.2516354819999833,2023,1408,538
3.254320819998611,2002,1429,549
3.257006908999756,1977,1435,549
3.2596912480003084,1953,1371,498
3.262384919999022,1937,1363,502
3.265070465999088,1936,1328,484
3.267757679999704,1946,1351,511
3.2704448940003203,1999,1394,538
3.2731298159997095,1991,1404,537
3.2758171959994797,1971,1440,563
3.2785060349997366,1951,1381,510
3.2811924979996547,1941,1360,502
3.2838812119989598,1936,1344,495
3.2865683419986453,1932,1307,477
3.2892558889998327,1984,1392,543
3.291944643999159,1999,1396,535
3.294632732999162,1980,1423,555
3.297317987999122,1967,1413,537
3.30000503500014,1946,1360,496
3.3026907069997833,1940,1360,503
3.305377045999194,1936,1321,477
3.3080644679994293,1968,1365,525
3.31076338999992,2016,1402,535
3.31344781199914,2006,1411,540
3.3161355249994813,1981,1455,563
3.318828155999654,1952,1373,499
3.321516578000228,1936,1360,502
3.324206082999808,1927,1338,490
3.3268950049987325,1921,1313,485
3.32958734299973,1969,1377,528
3.3322805569987395,1994,1392,534
3.3349711039991234,1977,1423,553
3.3376592339991475,1957,1398,528
3.340352322999024,1943,1359,495
3.3430432029999793,1936,1355,499
3.3457301250000455,1933,1311,471
3.348416754999562,1959,1357,510
3.3511069269989093,1985,1392,534
3.353794640999695,1979,1406,535
3.3564854380001634,1962,1443,560
3.3591751099993417,1943,1360,494
3.3618891569985863,1938,1360,501
3.3645793289997528,1936,1329,491
3.3672737090000737,1936,1328,496
3.3699687979988084,2000,1393,541
3.3726599700003135,2000,1398,530
3.3753478079997876,1981,1435,554
3.378033813998627,1955,1392,511
3.3807209440001316,1942,1360,497
3.3834084489990346,1936,1350,496
3.386096787999122,1932,1307,469
3.388786084999083,1989,1387,537
3.3914778399994248,2019,1405,537
3.394165095000062,2000,1424,546
3.396887101000175,1974,1443,551
3.399577813999713,1951,1367,497
3.4022675699998217,1938,1365,510
3.4049558249989786,1934,1329,487
3.4076440799999546,1941,1347,509
3.410333918998731,2000,1397,542
3.4130212159998337,2000,1405,537
3.4157101799992233,1979,1440,560
3.418400267999459,1957,1388,511
3.4210883979994833,1941,1360,501
3.4237768619987037,1934,1347,496
3.426466826000251,1936,1300,468
3.4291521639988787,1985,1392,539
3.431839252998543,2002,1399,533
3.434527924999202,1985,1424,549
3.4372297219997563,1967,1423,541
3.4399496440000803,1947,1361,496
3.442656482999155,1937,1360,505
3.4453436549993057,1934,1325,474
3.4480318679998163,1958,1360,524
3.4507227069989312,2010,1395,533
3.4534112949986593,2001,1408,534
3.456099216999064,1980,1451,562
3.458789639000315,1958,1379,500
3.461484894998648,1939,1363,507
3.464172732999941,1934,1343,495
3.4668611549986963,1932,1314,482
3.4695474519994605,1999,1396,541
3.4722352909993788,2011,1399,534
3.474922337998578,1987,1430,559
3.477609384999596,1965,1410,528
3.480295806999493,1947,1359,496
3.482984561998819,1937,1360,501
3.485670483998547,1934,1317,474
3.488358446998973,1957,1366,511
3.491045493999991,1984,1392,533
3.4937319999989995,1975,1404,541
3.4964205469987064,1964,1435,566
3.49910675999854,1947,1360,496
3.50179443199886,1938,1360,501
3.504481312998905,1934,1331,493
3.5071679430002405,1934,1323,491
3.5098536149998836,1992,1391,537
3.512543619999633,1994,1393,533
3.515232499999911,1977,1425,559
3.517917088998729,1959,1395,528
3.5206029689998104,1943,1359,499
3.5232897249989037,1936,1354,502
3.5259759799992025,1931,1309,473
3.5286632770003052,1969,1373,531
3.531352406998849,1993,1394,530
3.534039578999,1984,1410,543
3.536727708999024,1967,1440,559
3.5394254229995568,1950,1358,495
3.5421211779994337,1937,1360,500
3.5448541839996324,1936,1329,487
3.547544563998599,1931,1333,498
3.550258485998711,1987,1391,541
3.552952283000195,1991,1392,529
3.5556443719997333,1971,1432,559
3.558335501998954,1954,1385,511
3.5610256740001205,1938,1358,500
3.5637162619987066,1936,1347,496
3.566405933999704,1934,1301,466
3.569094689999474,1968,1383,535
3.571782777999033,1981,1392,531
3.574471949999861,1967,1408,545
3.5771614969999064,1953,1419,539
3.579852003000269,1943,1357,494
3.5825423409987707,1936,1357,499
3.585229137999704,1934,1319,478
3.587917976999961,1939,1345,506
3.5906079819997103,1990,1391,532
3.593296028999248,1985,1394,534
3.595985075999124,1970,1435,560
3.598673497999698,1951,1375,503
3.601361002998601,1939,1358,498
3.604049550000127,1934,1343,491
3.6067381390002993,1931,1303,475
3.60942685199916,1983,1387,539
3.612120316000073,1995,1393,531
3.614809445998617,1985,1422,545
3.6174967019996984,1955,1411,535
3.62018337399968,1946,1359,496
3.622872711999662,1937,1359,502
3.625560966998819,1931,1318,476
3.6282489730001544,1950,1360,522
3.6309383529987826,1990,1392,537
3.633625483000287,1984,1401,533
3.6363148639993597,1967,1441,563
3.639000868999574,1952,1366,498
3.641690958000254,1936,1360,499
3.644379545999982,1935,1334,486
3.6470718849996047,1934,1315,485
3.6497632230002637,1984,1389,539
3.6524517289999494,1987,1392,528
3.655142525998599,1971,1423,551
3.6578293229995325,1953,1395,525
3.6605189530000644,1939,1360,496
3.663210041999264,1936,1351,496
3.665898462999394,1931,1310,470
3.6685872599991853,1967,1363,511
3.671277890998681,1997,1394,533
3.6739690209997207,1985,1409,541
3.6766606099990895,1966,1446,560
3.679350156999135,1949,1361,490
3.682037953998588,1936,1360,499
3.6847266669992678,1936,1331,487
3.687413464000201,1931,1324,491
3.690101094000056,2013,1399,538
3.6927905159991496,2018,1407,533
3.6954805629993643,1993,1439,559
3.698194151998905,1967,1401,511
3.700884698999289,1946,1366,502
3.7035752039992076,1936,1357,497
3.7062666679994436,1934,1313,473
3.708956214999489,1983,1386,535
3.7116518869988795,2012,1405,537
3.7143420169995807,2000,1424,544
3.7170293559993297,1970,1441,555
3.719716943998719,1955,1364,494
3.722406699998828,1941,1361,502
3.725093412998831,1935,1331,485
3.727781710000272,1931,1342,505
3.730470716000127,1971,1391,535
3.733158387000003,1974,1392,529
3.735846767998737,1962,1427,558
3.738536855998973,1947,1376,507
3.741225277999547,1936,1353,497
3.743911699999444,1935,1342,493
3.7466010809985164,1935,1296,464
3.7492837110003165,1982,1387,535
3.75197313299941,1995,1392,529
3.7546661799988215,1984,1419,549
3.75735485199948,1966,1424,535
3.7600416489985946,1943,1359,496
3.7627331120002054,1938,1360,506
3.765418700999362,1934,1318,480
3.7681071649985824,1956,1354,511
3.770797961999051,2013,1401,540
3.773485799998525,2002,1408,537
3.776173596999797,1982,1446,561
3.7788609769995674,1959,1381,504
3.781546857999274,1943,1360,502
3.7842352379993827,1936,1341,490
3.786921867998899,1931,1310,477
3.789608164999663,1985,1392,540
3.7923058369997307,1996,1395,530
3.794993800998782,1979,1424,546
3.797680722998848,1957,1410,529
3.8003678109998873,1945,1360,495
3.8030560669994884,1936,1357,500
3.805743488999724,1933,1318,477
3.8084301609997055,1955,1360,511
3.8111230409995187,1990,1392,534
3.8138101709992043,1985,1399,539
3.816500509999969,1963,1441,566
3.8191879320002045,1948,1362,496
3.8218745619997208,1937,1359,502
3.824564983999153,1936,1333,492
3.8272527389999595,1934,1318,489
3.8299389530002372,1987,1392,540
3.832627166999373,1999,1393,530
3.835315462998551,1982,1424,559
3.838001551999696,1965,1399,527
3.8406886819993815,1945,1360,497
3.843378728999596,1936,1355,498
3.846062818000064,1933,1311,471
3.8487516149998555,1973,1370,527
3.851440119999097,2010,1399,538
3.854126541998994,2000,1417,545
3.8568494639985147,1975,1454,562
3.8595384279997234,1953,1366,496
3.8622528500000044,1941,1363,505
3.864944896999077,1936,1332,487
3.8676352349993977,1936,1332,496
3.87032382399957,2002,1397,539
3.8730074539998895,2006,1402,537
3.875694667998687,1986,1437,561
3.878386339998542,1961,1393,511
3.8810758869985875,1947,1362,499
3.8837652249985695,1937,1355,499
3.886458771999969,1935,1306,466
3.889148360998661,1977,1386,535
3.891836365999552,2002,1399,533
3.8945235800001683,1988,1419,545
3.897211960000277,1968,1431,544
3.8999006319991167,1950,1360,496
3.902588595999987,1937,1360,507
3.905274601000201,1935,1328,481
3.9079615649989137,1944,1347,507
3.910649236999234,2037,1409,545
3.9133366999994905,2037,1419,539
3.916025913998965,2006,1456,566
3.9187139610003214,1973,1401,524
3.9214000909996685,1952,1373,503
3.924087637999037,1937,1351,497
3.926776226999209,1933,1307,470
3.929464773998916,1999,1399,545
3.932153986999765,2022,1409,537
3.9348428679986682,2003,1431,551
3.937528164999094,1972,1430,539
3.9411171299998387,1951,1369,498
3.943826093998723,1939,1363,511
3.9465155159996357,1927,1303,474
3.9492028539989406,1979,1381,535
3.951889942998605,1999,1393,533
3.9545757399992,1972,1407,535
3.9572610369996255,1968,1427,549
3.9599502499986556,1949,1360,496
3.962646338999548,1936,1355,496
3.9653337609997834,1931,1327,480
3.968021349999617,1941,1344,507
3.970708229999218,1986,1392,538
3.973395568998967,1984,1392,530
3.9760834489989065,1968,1431,560
3.9787719959986134,1953,1379,510
3.9814596260002872,1941,1357,498
3.984147256000142,1936,1344,496
3.9868357199993625,1930,1297,469
3.989524849999725,1971,1387,537
3.992213105999326,1985,1390,528
3.9949045269986527,1975,1414,546
3.9975922829999035,1961,1414,542
4.000281120999716,1939,1357,496
4.002967667998746,1938,1357,502
4.005709256998671,1931,1318,477
4.008424804000242,1954,1358,508
4.0111444759986625,2003,1397,534
4.013835189998645,2000,1409,543
4.016525986999113,1977,1445,565
4.019212866998714,1959,1374,503
4.021899288998611,1943,1361,502
4.024587793999672,1935,1343,490
4.027276799999527,1931,1317,485
4.02996542999972,2001,1399,539
4.032653852000294,2015,1402,532
4.035340356998859,1989,1431,548
4.038025611998819,1965,1407,529
4.040713283999139,1950,1362,501
4.043438205999337,1938,1359,501
4.046148794999681,1936,1316,475
4.049087300998508,1980,1375,526
4.05177693099904,2021,1406,538
4.0544674359989585,2005,1424,547
4.057157608000125,1981,1447,557
4.059850446999917,1963,1366,493
4.062542035999286,1945,1365,503
4.065229290999923,1936,1327,480
4.0679162129999895,1941,1344,498
4.070603176000077,2017,1403,543
4.073290057000122,2016,1410,542
4.075978187000146,1990,1446,563
4.078665109000212,1962,1393,511
4.081351447999623,1937,1362,497
4.084037536000324,1930,1349,495
4.0867260830000305,1920,1299,464
4.089414254998701,2007,1392,539
4.092104593999466,2055,1415,539
4.094791640998665,2023,1439,553
4.097479437999937,1984,1445,550
4.100167734999559,1961,1375,503
4.10285490699971,1942,1371,511
4.105541662000178,1933,1331,482
4.108238167000309,1943,1354,511
4.110925963999762,2013,1405,538
4.113613968998834,2010,1412,539
4.1163021409993235,1984,1449,561
4.118989646998671,1963,1389,509
4.121678818999499,1947,1363,501
4.124369948998719,1936,1346,494
4.127058578998913,1931,1308,477
4.129745209000248,1994,1393,542
4.132432297999912,2013,1399,532
4.135118012000021,1993,1427,552
4.137803808998797,1970,1419,533
4.140492230999371,1944,1362,497
4.143178693999289,1937,1360,505
4.1458633659985935,1935,1322,477
4.1485511209994,1961,1361,527
4.151236751999022,2034,1408,539
4.153923423999004,2026,1422,543
4.156612261998816,1992,1457,569
4.159299683999052,1965,1385,502
4.1619880229991395,1945,1371,504
4.164677902999756,1936,1344,496
4.167366408999442,1934,1315,479
4.170051496999804,2032,1408,545
4.172739419000209,2055,1419,541
4.175426215999323,2018,1446,561
4.1781113050001295,1983,1424,538
4.180841684999905,1954,1375,506
4.183532148999802,1936,1363,505
4.1862466120001045,1935,1319,474
4.18893511799979,1972,1376,528
4.191623955999603,2013,1408,542
4.194311377999838,2000,1423,547
4.19699775799927,1977,1456,560
4.199688138998681,1951,1371,496
4.202374226999382,1939,1363,502
4.205060524000146,1934,1336,487
4.207748029999493,1934,1330,493
4.2104339099987556,2001,1396,539
4.213124998999774,2003,1402,530
4.215812586999164,1986,1435,557
4.2185025090002455,1959,1394,511
4.221191888998874,1943,1360,498
4.2238801029998285,1936,1354,499
4.226567649999197,1932,1310,464
4.229254197000046,1984,1385,534
4.231941076999647,2018,1406,536
4.234628041000178,2004,1424,545
4.237314337999123,1975,1441,553
4.240000259998851,1955,1367,495
4.242687931999171,1941,1366,504
4.245375436999893,1933,1329,478
4.248062609000044,1936,1344,503
4.250747530999433,2003,1398,540
4.253440952999881,2000,1402,531
4.2561337079987425,1982,1438,560
4.258822255000268,1962,1390,511
4.261508218998642,1942,1361,498
4.264209598999514,1935,1345,495
4.266901645998587,1934,1298,465
4.269590693000282,1981,1391,538
4.272279990000243,2005,1398,532
4.274967829000161,1986,1422,545
4.277681792000294,1968,1424,542
4.280370798000149,1947,1361,496
4.283060260999264,1936,1360,503
4.285747224999795,1934,1327,480
4.288434062998931,1947,1353,511
4.29112302700014,2012,1399,542
4.2938092819986196,2005,1409,541
4.296497829000145,1979,1447,565
4.299185084999408,1958,1379,506
4.301870672999939,1942,1361,501
4.3045588029999635,1934,1342,494
4.307245558999057,1929,1309,481
4.3099312309987,2002,1396,544
4.312621818999105,2014,1403,532
4.315311157999531,1996,1430,555
4.317997787999047,1969,1419,538
4.320685168999262,1948,1367,498
4.323374632000196,1937,1360,503
4.326062471000114,1933,1323,482
4.328752850999081,1963,1369,528
4.331441230999189,1997,1396,538
4.334127737000017,1989,1408,541
4.336858867000046,1968,1444,563
4.33954912199988,1949,1364,496
4.342262127998765,1939,1360,499
4.344956633000038,1935,1334,486
4.347648097000274,1935,1319,487
4.350335393999558,1997,1392,533
4.353023106999899,2000,1395,531
4.3557099039990135,1984,1428,557
4.358398909000243,1966,1397,526
4.3610879560001194,1947,1360,499
4.363778586999615,1936,1354,497
4.366467716999978,1935,1310,471
4.369155430998944,1982,1376,530
4.371844436000174,2018,1406,535
4.37453289899895,2002,1423,542
4.377222320999863,1979,1447,558
4.379912159998639,1956,1370,496
4.382603332000144,1939,1365,505
4.385291128999597,1932,1333,489
4.387981133999347,1936,1337,499
4.3906708899994555,2015,1401,542
4.393357352999374,2014,1408,535
4.396046232999652,1989,1442,561
4.398736321998513,1965,1393,511
4.4014242439989175,1947,1361,501
4.404113040998709,1935,1353,498
4.4068036709995795,1936,1309,470
4.4094948429992655,1985,1391,539
4.412189974000285,2029,1407,539
4.414918978998685,2005,1425,550
4.417651275998651,1968,1426,540
4.42038057299942,1953,1367,496
4.423107786999026,1939,1365,503
4.425832958999308,1935,1328,480
4.428561005999654,1946,1355,511
4.431288510999366,1998,1393,534
4.434013099998992,1996,1403,533
4.436739688999296,1972,1441,561
4.439465276998817,1955,1369,500
4.442242365999846,1937,1360,501
4.444973620999008,1936,1341,494
4.447701417999269,1935,1322,483
4.450427214998854,2013,1398,539
4.453152428999601,2031,1408,535
4.4558769349987415,2000,1441,559
4.458603606999532,1968,1406,527
4.461326278998968,1950,1365,501
4.464060659000097,1940,1359,498
4.466795413998625,1930,1314,470
4.4695230449997325,1986,1389,535
4.472252924999339,2032,1408,535
4.474985721999474,2011,1424,541
4.477713643998868,1984,1442,551
4.480443440999807,1956,1373,499
4.483171197000047,1940,1367,508
4.485891784999694,1936,1328,482
4.488619206998919,1955,1359,511
4.4913492539999424,2016,1403,535
4.494074009999167,2006,1413,542
4.496806347999154,1986,1453,569
4.499535061999268,1957,1380,507
4.502291983999385,1941,1365,509
4.505023405999964,1936,1342,495
4.50775466199957,1933,1323,496
4.510482292000233,2001,1395,546
4.513211546998718,2015,1407,533
4.515942510999594,1995,1438,560
4.518671390998861,1968,1399,511
4.521395937999841,1946,1366,496
4.524123735000103,1939,1359,500
4.526851323998926,1934,1311,471
4.529576662998807,1993,1392,540
4.532303377000062,2027,1408,537
4.535029298998779,2006,1426,550
4.537756345998787,1977,1439,551
4.540486600999429,1956,1370,498
4.543212647999098,1938,1366,505
4.54593748699881,1935,1328,480
4.548662658999092,1956,1360,511
4.551387497000178,2027,1408,541
4.5541120859998045,2024,1419,538
4.556877592000092,1995,1457,562
4.5596042219985975,1966,1383,501
4.562327935998837,1941,1370,502
4.565057648998845,1936,1345,491
4.567786737999995,1934,1325,489
4.570518159998755,2015,1401,543
4.573244748999059,2027,1410,532
4.575974211998982,1998,1442,559
4.578702175998842,1970,1404,523
4.581427139999505,1947,1367,503
4.58415568700002,1936,1359,499
4.586884066999119,1934,1311,469
4.589610488999824,1990,1390,542
4.592339035998521,2023,1406,539
4.5950670419988455,2000,1425,549
4.59779204699953,1977,1439,545
4.6005185109988815,1953,1369,497
4.603246807999312,1939,1367,504
4.6059745629991085,1934,1327,481
4.608701068998926,1949,1357,511
4.611426281999229,2009,1402,538
4.614136078998854,2000,1409,538
4.616866000998925,1977,1447,564
4.619557006999457,1955,1373,499
4.622249803998784,1941,1361,502
4.624935808998998,1936,1341,491
4.627625396999065,1933,1318,487
4.630313943998772,2018,1402,543
4.633002532998944,2029,1410,535
4.635691662999307,2003,1439,557
4.638380376998612,1971,1414,529
4.641066381998826,1951,1367,501
4.643753428999844,1936,1361,503
4.646442059000037,1933,1315,473
4.649131022999427,1972,1375,524
4.651819736998732,2018,1408,538
4.654508199999327,2000,1421,544
4.6571971220000705,1983,1456,567
4.659886502999143,1957,1370,496
4.662577215998681,1940,1365,503
4.665271304998896,1933,1337,489
4.6679661019989,1934,1328,493
4.670655689998966,2010,1398,539
4.673343320999265,2013,1407,530
4.67603115899874,1986,1439,560
4.67871941500016,1964,1398,526
4.681406919999063,1947,1360,502
4.684093841999129,1936,1356,498
4.686782263999703,1934,1310,471
4.689469893999558,1985,1379,536
4.692158232999645,2035,1408,539
4.694847570999627,2020,1429,547
4.697535159999461,1987,1454,557
4.700224914999126,1964,1376,497
4.702914170999065,1945,1372,508
4.705601675999787,1934,1338,486
4.708289722999325,1936,1344,503
4.71097818599992,1986,1394,539
4.713670024999374,1987,1392,530
4.716363404999356,1969,1434,558
4.7190535359986825,1955,1381,503
4.7217393739992986,1941,1359,497
4.724427212999217,1934,1344,494
4.7271149680000235,1936,1299,465
4.729805139999371,2011,1393,539
4.732496061998972,2041,1413,539
4.73518494199925,2025,1439,555
4.737872363999486,1989,1445,555
4.740560910999193,1959,1374,501
4.743248832999598,1942,1371,509
4.745935129998543,1934,1331,483
4.7486230109989265,1957,1360,511
4.751309598999796,2028,1408,540
4.753998479000074,2017,1418,539
4.756687025999781,1995,1456,566
4.759377197999129,1967,1392,511
4.76206649499909,1948,1369,501
4.764759501000299,1938,1351,495
4.767455006000091,1936,1309,477
4.7701434699993115,2002,1399,542
4.772859183000037,2021,1409,535
4.775548022000294,1999,1437,555
4.77825735999977,1975,1424,535
4.780947240999012,1958,1370,497
4.783639870998741,1939,1359,491
4.7863375849992735,1932,1312,461
4.789028089999192,1991,1370,511
4.791716678999364,2080,1419,534
4.794408100999135,2061,1429,537
4.797094730998651,2006,1471,561
4.799783860999014,1967,1391,495
4.802471907998552,1936,1370,496
4.805158246999781,1922,1341,480
4.807846793999488,1920,1318,477
4.810536215998582,2064,1413,539
4.8132509289989684,2090,1441,547
4.8159460599999875,2042,1472,567
4.81863943999997,1999,1439,539
4.821325944998534,1961,1392,507
4.8240139089994045,1938,1376,511
4.826702705999196,1933,1327,478
4.829399960999581,1982,1386,531
4.832087425000282,2042,1419,544
4.834774471999481,2028,1437,550
4.837460476999695,1994,1462,563
4.840148731998852,1968,1380,499
4.842834612998558,1944,1376,507
4.845520576000126,1935,1342,492
4.848208915000214,1936,1339,499
4.850895128000047,2011,1403,542
4.853581466999458,2016,1409,535
4.856268305999038,1988,1443,560
4.85895793599957,1967,1396,511
4.8616539829999965,1946,1365,503
4.864353487999324,1936,1354,494
4.867047826999624,1931,1309,470
4.869736623999415,2013,1397,540
4.872429879000265,2087,1424,542
4.875118676000056,2060,1454,555
4.8778060149998055,2010,1462,560
4.880494436998561,1968,1391,503
4.8831816089987115,1950,1379,511
4.885867572000279,1936,1339,485
4.888554785999077,1943,1355,509
4.891244958000243,2025,1409,546
4.893933379998998,2019,1418,541
4.896621885000059,1994,1452,563
4.899309389998962,1968,1393,511
4.90199481199852,1949,1366,505
4.904681692998565,1935,1350,496
4.907369197999287,1920,1303,470
4.910054535999734,1994,1394,542
4.9127414579998,2015,1405,536
4.915433713998937,1998,1425,550
4.918122719000166,1970,1425,541
4.920851098999265,1952,1363,496
4.923544729999776,1936,1361,506
4.926258526998936,1936,1322,478
4.9289487400001235,1962,1360,523
4.931636411998625,2025,1406,541
4.934324833999199,2017,1415,542
4.937011089999942,1984,1456,570
4.939699802998803,1960,1385,503
4.942386892000286,1943,1367,505
4.945072979999168,1936,1343,494
4.947759986000165,1932,1316,481
4.950447448998602,2016,1402,543
4.9531392459994095,2034,1411,533
4.955827542999032,2007,1443,558
4.9585160489987175,1973,1420,531
4.961206344998573,1953,1370,504
4.963924016999954,1936,1360,507
4.966641772998628,1932,1321,478
4.969339277999097,1968,1370,511
4.972036825000032,2022,1408,539
4.97473103899938,2013,1421,545
4.977422460999151,1984,1456,567
4.980116048998752,1959,1372,497
4.982812387999729,1942,1366,502
4.9855071019992465,1933,1335,487
4.988204481998764,1933,1328,496
4.990903029000037,2018,1398,542
4.993597867998687,2025,1408,535
4.996293622998564,2000,1444,560
4.998987420000049,1968,1402,511
5.0016787169988675,1946,1363,498
5.004373472000225,1936,1357,496
5.0070806439998705,1931,1310,467
5.009783399000298,1978,1389,534
5.012487488000261,2003,1401,535
5.01522365999881,1994,1423,546
5.017956289999347,1968,1438,547
5.020653087000028,1950,1362,495
5.023347925998678,1936,1360,498
5.0260403899992525,1930,1326,481
5.028733477998685,1949,1349,511
5.031427108999196,2032,1405,539
5.034117905999665,2026,1415,539
5.036840452999968,1998,1455,565
5.03953616599938,1968,1392,509
5.042254212999978,1946,1367,502
5.044948552000278,1936,1345,495
5.047643723999499,1927,1309,477
5.05036268799995,2014,1402,539
5.053097400999832,2041,1413,540
5.055795239999497,2013,1442,557
5.058487161999437,1977,1423,534
5.0611770839987,1953,1371,501
5.0638675469999725,1937,1362,502
5.066560010998728,1935,1323,473
5.06925072499871,1968,1373,525
5.071944146999158,2017,1406,538
5.0746459439997125,2003,1419,544
5.077338406999843,1982,1456,562
5.080031745999804,1956,1373,496
5.082729625999491,1939,1364,505
5.0854231729990715,1930,1334,493
5.088116261998948,1932,1326,494
5.090807266999036,1995,1393,542
5.093497439000203,1998,1398,531
5.096191360999001,1984,1426,554
5.098883990998729,1958,1395,511
5.101573955000276,1942,1360,497
5.104268876999413,1936,1351,497
5.106963006999649,1930,1307,470
5.1096540540002024,1987,1380,533
5.112348684999233,2032,1409,537
5.115044730999216,2016,1427,547
5.117737986998691,1986,1454,554
5.1204327839986945,1959,1372,496
5.123125996999079,1937,1369,505
5.12581529399904,1936,1337,482
5.128509174999635,1935,1344,499
5.131204429999343,1997,1395,535
5.133895310000298,1996,1399,529
5.136588773999392,1977,1438,559
5.139282696000009,1957,1387,509
5.141973200999928,1942,1360,497
5.144666539999889,1936,1345,496
5.147363752999809,1934,1302,465
5.150058508999791,1979,1389,539
5.15275197200026,1999,1394,530
5.155444227999396,1986,1419,546
5.158134149998659,1967,1424,544
5.160865654999725,1946,1361,496
5.163572784998905,1938,1359,502
5.1663422909987275,1933,1323,478
5.1690405039989855,1953,1360,511
5.171736135000174,2023,1405,541
5.174433889998909,2012,1413,541
5.17712856199978,1987,1454,567
5.179825316999995,1962,1381,502
5.182519656000295,1945,1365,503
5.185209452998606,1936,1343,494
5.1879042079999635,1931,1314,486
5.190598921999481,2005,1398,543
5.193290176999653,2023,1407,540
5.195984015999784,2001,1438,558
5.198677520998899,1971,1413,529
5.201368860000002,1950,1367,499
5.204062990000239,1938,1361,502
5.206755411998529,1931,1317,476
5.2094498759997805,1974,1374,526
5.212145297999086,2021,1408,538
5.214838469999449,2010,1422,548
5.21752910000032,1981,1456,570
5.22022418799861,1956,1370,499
5.222925359999863,1940,1363,506
5.225619740998809,1934,1334,487
5.228314496000166,1935,1328,496
5.231008834998647,2032,1407,546
5.233698131998608,2055,1418,538
5.23639101200024,2018,1453,560
5.239084475999334,1982,1410,528
5.241778230998534,1955,1376,505
5.2444754440002725,1936,1361,502
5.247169574999134,1931,1314,473
5.249860455000089,1975,1387,538
5.252554209999289,2001,1403,534
5.25524563199906,1990,1421,547
5.257934012999613,1970,1438,555
5.260623059999489,1951,1365,496
5.263313814999492,1939,1361,501
5.2660039869988395,1931,1328,483
5.268697949999478,1936,1341,505
5.271392038999693,2000,1396,537
5.2740823779986385,2002,1403,538
5.27677229999972,1983,1440,560
5.279467054999259,1958,1387,511
5.282159268999749,1945,1360,501
5.284886399000243,1937,1350,497
5.287580070998956,1935,1303,471
5.29027486799896,1994,1393,546
5.2929664149996825,2021,1405,536
5.295660419998967,2001,1430,554
5.298354216998632,1979,1429,544
5.301047430999461,1955,1371,497
5.30374039399976,1939,1364,504
5.306438482999511,1936,1327,479
5.309133737999218,1967,1362,527
5.311828869000237,2061,1417,544
5.31452304099912,2042,1426,547
5.317215003999081,2002,1465,573
5.3199075929987885,1970,1392,506
5.322601681999004,1950,1376,505
5.325293728999895,1936,1349,496
5.327989899999011,1931,1322,487
5.330690781000158,2018,1407,546
5.333386910999252,2036,1414,535
5.33608224999989,2006,1445,560
5.338783047000106,1971,1418,531
5.341475301998798,1946,1371,498
5.3441689319988654,1940,1362,503
5.346863896000286,1936,1320,473
5.349556068000311,1972,1376,528
5.352251197999067,2022,1409,538
5.354943161999472,2009,1422,543
5.357635749998735,1981,1458,565
5.360326838999754,1957,1371,494
5.363020343998869,1939,1365,501
5.365707932998703,1935,1337,490
5.3684093129995745,1933,1329,496
5.3711032350001915,2016,1403,539
5.373794365999856,2018,1408,534
5.376489578999099,1994,1442,560
5.37918425099997,1967,1398,523
5.38186950599993,1950,1364,502
5.384562387000187,1923,1344,491
5.387258266999197,1931,1311,469
5.389948688998629,1984,1383,537
5.392641319000177,2011,1403,534
5.39533315799963,1997,1423,544
5.398023829999147,1971,1440,554
5.402622255998722,1951,1366,498
5.405321677999382,1936,1339,496
5.408020474998921,1933,1311,482
5.410716521999348,2013,1399,544
5.413408693999372,2031,1407,533
5.416143741000269,2005,1438,557
5.418851620999703,1977,1415,534
5.421543417998691,1955,1367,499
5.42423767299988,1939,1361,506
5.426933761998953,1933,1318,474
5.429624808999506,1964,1371,528
5.432319438999912,2013,1403,534
5.435015110999302,1999,1418,546
5.437706532999073,1978,1455,563
5.440401287998611,1954,1361,496
5.443099793999863,1939,1363,505
5.445815256998685,1935,1333,486
5.4485237629996845,1929,1330,496
5.451220850998652,2032,1405,546
5.453916772999946,2043,1414,539
5.456611278999844,2010,1453,561
5.459305533999213,1972,1405,525
5.461993705999703,1951,1374,502
5.464683627998966,1939,1360,499
5.467380174999562,1935,1313,471
5.470070137998846,1985,1392,539
5.472760184999061,2018,1406,538
5.475455648998832,2001,1426,549
5.478145487999427,1977,1439,553
5.480871910000133,1956,1367,496
5.483568539999396,1931,1355,496
5.4862637119986175,1936,1330,484
5.488954925998769,1939,1350,507
5.491648638999322,1986,1392,537
5.494342727999538,1981,1397,529
5.497037649998674,1966,1433,560
5.499735654999313,1942,1371,499
5.502429784999549,1934,1351,498
5.505120290999912,1932,1338,494
5.507813962998625,1930,1297,471
5.510506925998925,1987,1391,539
5.513196639998569,2014,1395,534
5.515890769998805,1990,1424,553
5.518585734000226,1968,1418,538
5.521276113999193,1948,1362,497
5.523967660999915,1939,1360,503
5.5266627080000035,1935,1321,478
5.52935579699988,1968,1363,525
5.532051176998721,2034,1409,540
5.534743223999612,2028,1423,542
5.537433812998643,1993,1456,573
5.540136943000107,1968,1383,505
5.542857739999818,1946,1371,509
5.545553869998912,1936,1344,495
5.5482493759991485,1931,1321,489
5.550944048000019,1997,1398,544
5.553635677999409,2000,1401,538
5.556327140999201,1984,1429,549
5.5590296469999885,1965,1403,528
5.5617249440001615,1943,1361,496
5.564417906998642,1937,1356,498
5.567109995999999,1933,1311,475
5.569802668000193,1971,1371,529
5.572495922999224,2007,1404,538
5.575188803999481,2000,1415,546
5.577874724998765,1971,1447,561
5.580567480999889,1952,1367,496
5.583263777998582,1937,1362,508
5.585954033000235,1933,1333,485
5.588647954999033,1933,1333,496
5.591341126999396,2023,1403,542
5.594036507000055,2032,1411,540
5.596734179000123,2000,1447,563
5.599430393000148,1968,1397,511
5.602122147998671,1947,1361,496
5.604836611999417,1937,1359,497
5.607529075999992,1935,1310,467
5.610239872999955,2003,1392,543
5.612933503000022,2035,1413,542
5.615631299999222,2017,1436,550
5.618353930000012,1984,1445,547
5.621058226999594,1961,1377,500
5.623753816000317,1941,1373,508
5.6264525709993904,1931,1329,482
5.629146284998569,1959,1360,511
5.631841122998594,2033,1411,543
5.634535336999761,2027,1421,544
5.637226508999447,1997,1456,563
5.639920555999197,1967,1392,509
5.642615060998651,1950,1367,504
5.645306357999289,1936,1347,496
5.648001612998996,1934,1311,480
5.650692868999613,1987,1395,542
5.65338012400025,2006,1399,532
5.656078003999937,1990,1427,557
5.658772384998883,1966,1414,533
5.661463514999923,1949,1363,499
5.66415502000018,1936,1360,501
5.666844608998872,1935,1319,475
5.6695344889994885,1967,1367,528
5.672227077999196,2023,1407,539
5.674921541000003,2010,1419,540
5.677612046998547,1982,1455,570
5.680304218998572,1958,1375,502
5.6829984319992946,1939,1364,505
5.685689687999911,1936,1343,489
5.688384525999936,1933,1322,491
5.691084322999814,2013,1401,542
5.693777328999204,2030,1408,533
5.696473959000286,1997,1440,558
5.699167546999888,1974,1408,527
5.701859593998961,1950,1365,499
5.704553932999261,1936,1353,496
5.7072484379987145,1934,1313,473
5.709939193999162,1977,1379,531
5.712632949000181,2015,1408,539
5.7153266629993595,2000,1424,543
5.718020876000082,1974,1451,560
5.720713048000107,1957,1369,496
5.723404262000258,1938,1364,505
5.726097183998718,1933,1333,486
5.728789355998742,1935,1334,498
5.731481360999169,2003,1398,543
5.73420724099924,2014,1403,538
5.736902746999476,1989,1442,560
5.739599751999776,1967,1392,511
5.742293882000013,1945,1363,502
5.7449845539995295,1937,1351,496
5.747678350999195,1933,1305,466
5.750372606999008,1987,1390,539
5.753068153999266,2007,1403,538
5.755762617000073,1992,1424,549
5.758454539000013,1968,1429,547
5.761145753000164,1952,1363,498
5.7638375499991525,1938,1362,503
5.766528971998923,1932,1325,481
5.769220226999096,1950,1349,509
5.7719122739999875,1993,1392,534
5.774606987999505,1990,1401,531
5.777297242999339,1970,1439,560
5.7799895819989615,1953,1379,503
5.782680712000001,1939,1359,499
5.785373466998863,1935,1342,495
5.788069263999205,1929,1306,476
5.790763269000308,1978,1389,540
5.793455024999275,1990,1392,531
5.796147987999575,1977,1419,551
5.798839784998563,1963,1408,534
5.80153104099918,1941,1359,498
5.804225295998549,1936,1357,501
5.806919134000054,1933,1308,469
5.809612180999466,1958,1364,523
5.812313020000147,1991,1392,538
5.81591173599918,1983,1405,537
5.818656698998893,1968,1443,566
5.821367037999153,1947,1350,496
5.824065334998522,1936,1351,503
5.826760006999393,1935,1313,476
5.829451886998868,1958,1354,511
5.8321455589994,2001,1394,533
5.834839772998748,2000,1406,535
5.837530569999217,1975,1443,563
5.84022478299994,1952,1372,497
5.842918038999414,1938,1360,500
5.845609543999672,1936,1338,491
5.848302423999485,1931,1312,482
5.850999762998981,1991,1392,543
5.853694477000317,2000,1394,530
5.856393815000047,1984,1424,555
5.859086528998887,1965,1406,529
5.861777242000244,1947,1360,498
5.86447853899881,1933,1357,497
5.867172960999596,1935,1313,473
5.869865257998754,1975,1369,527
5.872556346999772,2007,1393,528
5.875252394000199,2006,1419,545
5.8779431490002025,1981,1456,565
5.880638487999022,1958,1371,497
5.883334742999068,1941,1364,502
5.886027622998881,1936,1338,492
5.888721294999414,1934,1330,495
5.891413675999502,2000,1393,542
5.894103222999547,2003,1403,532
5.8968076029996155,1983,1434,559
5.899503857999662,1959,1393,511
5.902230279998548,1947,1360,496
5.904923369000244,1936,1353,497
5.907619707999402,1934,1305,469
5.910315170998729,1994,1387,530
5.913008884999726,2030,1408,535
5.915704306999032,2013,1430,545
5.918398478999734,1981,1439,551
5.921090858999378,1958,1369,496
5.923785238999699,1938,1364,503
5.926496785999916,1931,1330,483
5.929206416998568,1944,1351,508
5.93190537999908,2024,1406,543
5.934599635998893,2022,1413,541
5.937289432999023,1993,1453,562
5.939984605000063,1967,1392,511
5.942679067999052,1943,1364,503
5.945376114999817,1936,1348,495
5.948074370999166,1931,1307,471
5.9507702509999945,1986,1393,542
5.953462423000019,2000,1398,530
5.956157385999177,1990,1425,554
5.958849642000132,1964,1418,539
5.961543854999036,1946,1361,496
5.964236110999991,1936,1359,502
5.966927865998514,1935,1319,479
5.96961932999875,1961,1363,511
5.972310043000107,2000,1401,536
5.975004089999857,1997,1407,538
5.977697678999903,1971,1445,565
5.980393683999864,1954,1369,497
5.983089355999255,1939,1362,499
5.98578102799911,1933,1338,490
5.988480033000087,1923,1317,486
5.991178164000303,1989,1392,538
5.993870710999545,1998,1395,529
5.996564174000014,1981,1426,549
5.999257720999594,1960,1399,525
6.0019490599988785,1947,1360,496
6.004645981998692,1936,1357,497
6.007339529000092,1934,1312,466
6.010033908998594,1973,1371,526
6.012729497999317,2018,1405,534
6.015481753000131,2002,1418,544
6.018237299998873,1977,1454,560
6.020961471998817,1953,1366,495
6.0236701859994355,1937,1363,501
6.0263663999994606,1936,1331,478
6.0290569469998445,1936,1339,498
6.031751159998748,1993,1393,535
6.034444040999006,1994,1395,533
6.037138211999263,1974,1434,558
6.03983100899859,1955,1384,511
6.042527097999482,1942,1360,497
6.045219727999211,1936,1345,496
6.047915024999384,1933,1301,466
6.050608780999028,2006,1393,541
6.053351410999312,2032,1410,539
6.056048540998745,2007,1433,551
6.0587481719994685,1981,1434,545
6.061453344000256,1953,1366,497
6.064148390998525,1941,1367,499
6.066839228999015,1933,1326,478
6.0695295259993145,1952,1359,511
6.072220239999297,2000,1397,534
6.074918786998751,1997,1405,534
6.077612458999283,1972,1445,560
6.080308963999414,1954,1379,499
6.083003010999164,1940,1360,500
6.085693099999844,1934,1339,490
6.0883887719992345,1929,1308,482
6.091083859999344,1985,1391,542
6.093779406999602,1993,1394,531
6.096474496000155,1968,1422,554
6.099164960000053,1957,1402,528
6.101856714998576,1942,1357,496
6.10455205299877,1936,1354,501
6.107250683999155,1933,1313,473
6.109943563998968,1972,1369,523
6.112640235998697,2021,1403,542
6.115336408000076,2003,1419,542
6.118029162998937,1979,1455,571
6.120722793999448,1956,1369,498
6.123415048999959,1940,1363,503
6.126107053998567,1934,1335,491
6.1288146850001795,1936,1328,496
6.1315151899998455,1982,1392,534
6.134239028999218,1980,1392,530
6.136943366998821,1967,1424,557
6.1396397890002845,1953,1386,511
6.142333793999569,1939,1354,496
6.145026632999361,1936,1347,498
6.147721637998984,1927,1301,469
6.150415684998734,1979,1379,532
6.153109773998949,2006,1397,531
6.155804403999355,1995,1418,544
6.158498034999866,1968,1435,550
6.161191122999298,1952,1361,496
6.163882586999534,1939,1360,502
6.166573799999242,1935,1328,482
6.1692701390002185,1943,1346,506
6.171965352999905,2007,1399,539
6.1746584409993375,2006,1407,534
6.177350362999277,1983,1442,560
6.180045868999514,1965,1390,511
6.182738874000279,1946,1365,501
6.185431212999902,1938,1349,496
6.1881260509999265,1936,1306,470
6.1908202649992745,1981,1393,546
6.19351164499858,1989,1397,532
6.196205649999683,1972,1418,546
6.198901488998672,1949,1413,534
6.201596453000093,1936,1358,495
6.204293124999822,1933,1355,499
6.206991671999276,1925,1315,475
6.209683218999999,1951,1356,511
6.212379140999474,1998,1392,533
6.2150736459989275,1987,1402,534
6.21776519299965,1972,1441,566
6.22045953199995,1950,1370,499
6.223190078999323,1936,1360,503
6.225891750998926,1936,1338,496
6.22858738099967,1933,1313,489
6.231281552998553,1998,1394,543
6.233975350000037,1999,1395,535
6.236670812999364,1983,1425,557
6.239366776999304,1964,1407,528
6.2420588659988425,1943,1360,497
6.244754203999037,1936,1358,500
6.247446834999209,1930,1313,475
6.250138006998895,1968,1368,527
6.2528603869996005,1997,1399,534
6.255559559000176,1984,1411,543
6.25826023099944,1968,1444,559
6.260953277998851,1949,1361,496
6.2636467829997855,1938,1360,501
6.266336954999133,1934,1329,483
6.269027209998967,1935,1330,496
6.27171771599933,1985,1391,537
6.274408012999629,1984,1392,531
6.2770991010002035,1971,1427,558
6.279792647999784,1956,1386,511
6.282485986999745,1936,1358,500
6.285175866998543,1934,1346,497
6.287869830999625,1933,1301,467
6.290562960999523,1962,1379,535
6.293251840999801,1981,1390,532
6.2959478049997415,1969,1408,542
6.298644434999005,1955,1423,544
6.301338940998903,1942,1355,491
6.304033403999711,1936,1356,501
6.306725700998868,1931,1324,479
6.309417872998893,1941,1343,508
6.31211341999915,1983,1391,535
6.314806091999344,1979,1392,531
6.317496431000109,1961,1429,560
6.320188603000133,1950,1375,501
6.322884982999312,1937,1354,496
6.325577112998872,1935,1341,493
6.32827003499915,1931,1297,471
6.330970081999112,1988,1389,539
6.333664128998862,2003,1397,531
6.33635976000005,1986,1424,546
6.339054389998637,1968,1418,539
6.341743561999465,1948,1360,496
6.344436691999363,1936,1360,502
6.347128821998922,1934,1321,477
6.349820452998756,1958,1361,511
6.3525154999988445,2007,1401,542
6.355210754998552,2000,1408,541
6.357901219000269,1977,1447,567
6.360596515998623,1955,1374,502
6.363290520999726,1941,1361,503
6.365983317999053,1935,1342,492
6.368675072999395,1927,1315,483
6.371366702998785,1974,1390,539
6.374057666998851,1982,1392,529
6.376750130999426,1970,1419,555
6.379445635999218,1952,1394,528
6.382137099999454,1942,1358,496
6.38486293799906,1936,1353,499
6.387557609999931,1919,1299,461
6.390252781999152,1964,1363,527
6.392946912999832,1981,1392,534
6.395643375999498,1971,1406,537
6.398338839999269,1955,1437,555
6.401031011999294,1941,1359,495
6.4037255169987475,1936,1358,505
6.406418730999576,1935,1328,487
6.409108443998775,1934,1328,499
6.411802450000323,2017,1396,545
6.414497705000031,2012,1404,538
6.41718850199868,1991,1439,561
6.419885256998896,1966,1395,511
6.422577637998984,1945,1361,501
6.42530355999952,1936,1355,498
6.428011398000308,1933,1306,467
6.430705319999106,1975,1386,535
6.433396074999109,1995,1395,531
6.436089038999853,1986,1420,544
6.438782835999518,1965,1426,551
6.441474007999204,1941,1360,496
6.44416759699925,1937,1358,503
6.4468608099996345,1934,1327,482
6.449551857000188,1935,1341,499
6.452246154000022,1993,1393,539
6.454939867999201,1988,1399,534
6.457633082000029,1968,1437,558
6.460327961998701,1952,1380,503
6.4630215090001,1939,1360,500
6.46571130600023,1936,1343,494
6.468402311000318,1933,1301,479
6.471092982999835,1986,1391,543
6.473782154998844,1995,1394,531
6.476473534999968,1979,1421,555
6.479168165998999,1961,1411,535
6.48186042099951,1942,1359,496
6.484554300999662,1921,1347,491
6.487249181000152,1932,1316,477
6.489940811999986,1959,1361,511
6.492634108999482,2014,1402,536
6.4953265719996125,2001,1411,538
6.498017077999975,1984,1450,567
6.500711165999746,1955,1374,501
6.503404547000173,1941,1361,503
6.506096469000113,1936,1338,494
6.508791431999271,1936,1318,490
6.511485061999338,1998,1396,544
6.514202651000232,2009,1401,533
6.516895822998777,1987,1430,555
6.519590452999182,1965,1405,529
6.522287291998509,1943,1360,497
6.524979046998851,1937,1359,499
6.527673343998686,1936,1314,473
6.530367724999451,1969,1371,527
6.533058813000025,2003,1399,537
6.535754568998527,1990,1416,546
6.538446865999504,1970,1446,560
6.541137037000226,1951,1365,496
6.5438295009989815,1941,1362,502
6.5465225059997465,1934,1332,486
6.549213177999263,1936,1331,498
6.55190547500024,2015,1398,543
6.554599688999588,2018,1407,535
6.557291903000078,1993,1442,561
6.5599865749991295,1968,1395,522
6.562676121999175,1948,1365,499
6.565366834998713,1937,1355,500
6.568056549000175,1930,1307,465
6.570746178998888,1979,1387,535
6.573436767999738,2001,1401,533
6.576126772999487,1988,1422,548
6.578820986998835,1968,1431,547
6.581511283999134,1950,1363,496
6.584203413998694,1938,1360,506
6.586898210998697,1933,1326,481
6.5895897159989545,1942,1347,508
6.592282887999318,2010,1397,542
6.594978184999491,2002,1407,538
6.597668606998923,1979,1441,563
6.600361361999603,1957,1387,511
6.60305474300003,1939,1360,501
6.605745705999652,1936,1344,496
6.6084395029993175,1933,1301,477
6.611132216999977,1995,1392,542
6.613825847000044,2010,1401,533
6.616518019000068,1991,1426,549
6.619213232999755,1970,1423,539
6.621905195999716,1950,1361,498
6.624598827000227,1936,1360,503
6.627318289998584,1931,1321,477
6.63002021200009,1971,1365,525
6.632716342999629,2039,1414,544
6.635410597998998,2030,1423,545
6.638102936998621,1996,1460,573
6.640805817,1967,1383,505
6.643499656000131,1946,1370,507
6.646220618998996,1935,1343,495
6.648915332998513,1932,1323,490
6.651613087999067,1997,1397,543
6.654305592999663,2001,1401,530
6.656995432000258,1982,1430,555
6.6596879789995,1957,1401,527
6.662380443000075,1947,1358,497
6.665074447999359,1936,1355,499
6.667764869998791,1931,1311,470
6.670457333999366,1968,1369,528
6.673147796998819,2007,1397,532
6.675839177998569,1994,1413,543
6.678531765999651,1969,1446,557
6.681225688000268,1954,1363,496
6.6839209429999755,1938,1361,505
6.686616364999281,1934,1330,483
6.689319453998905,1934,1331,496
6.6920150839996495,2006,1397,543
6.694709047998913,2006,1401,534
6.69739871999991,1986,1437,559
6.7000923919986235,1964,1392,511
6.7027863139992405,1943,1360,500
6.705474819000301,1933,1351,496
6.708168866000051,1935,1306,470
6.710861495999779,1971,1383,533
6.713555292999445,1984,1385,511
6.7162520900001255,1984,1415,547
6.718946761999177,1966,1430,546
6.721637225999075,1951,1360,496
6.724330355998973,1936,1360,499
6.727023944999019,1936,1326,482
6.72971274199881,1941,1347,507
6.73240578900004,1989,1392,538
6.7350994190001074,1985,1398,533
6.737791341000047,1968,1434,561
6.740486262999184,1950,1377,507
6.743178976999843,1941,1358,496
6.745871856999656,1935,1340,491
6.748567904000083,1930,1305,475
6.751260283999727,1974,1387,540
6.753952289998779,1986,1392,532
6.756646627998634,1974,1418,550
6.7593379669997375,1956,1408,531
6.762027679998937,1943,1356,496
6.7647198519989615,1936,1355,501
6.767410815999028,1936,1313,478
6.770100654999624,1967,1361,522
6.772802617999332,2020,1403,537
6.77549712399923,2005,1413,540
6.7782189619993005,1985,1454,571
6.7809107180000865,1961,1377,501
6.783601430999624,1941,1367,505
6.786296936999861,1936,1342,490
6.788990732999082,1931,1323,486
6.791685154999868,2011,1403,539
6.7943782019992796,2023,1407,533
6.797067124000023,1996,1437,558
6.79976213000009,1968,1409,528
6.802455676999671,1947,1363,498
6.805146931999843,1938,1359,499
6.8078520620001655,1932,1313,471
6.810548067998752,1969,1372,528
6.813247156000216,2000,1400,535
6.815985744999125,1989,1415,543
6.818692374999955,1968,1442,558
6.821389089000149,1949,1360,496
6.824082885999815,1936,1360,501
6.826780182998846,1932,1329,483
6.829508229999192,1934,1335,507
6.8322192349987745,2009,1395,540
6.8349168240001745,2006,1403,532
6.837608661999184,1984,1441,560
6.840300668000054,1959,1390,511
6.842997214998832,1945,1360,500
6.84569013699911,1936,1349,496
6.84838472499905,1931,1297,466
6.851077813998927,2010,1395,545
6.853767652999522,2035,1410,543
6.856461740999293,2007,1434,559
6.85915299699991,1980,1438,548
6.8618723769995995,1954,1371,499
6.864580215999013,1925,1353,497
6.867277178998847,1935,1327,480
6.8699686839991045,1955,1360,511
6.872661397999764,2022,1407,546
6.875351277998561,2017,1415,539
6.8780401589992834,1984,1452,566
6.880730871998821,1962,1387,509
6.883424002999163,1940,1363,503
6.886114007998913,1936,1347,495
6.88883913799873,1930,1315,480
6.891537559999051,2018,1403,547
6.894256523999502,2034,1411,541
6.896950946000288,2007,1441,558
6.899647284999446,1974,1421,529
6.902341331999196,1952,1371,498
6.9050367119998555,1943,1364,507
6.907735341999796,1936,1322,477
6.910430971998721,1985,1376,527
6.9131328530002065,2031,1410,539
6.915826982998624,2017,1424,541
6.91851898799905,1986,1462,571
6.921209826999984,1961,1375,497
6.92390524899929,1943,1370,507
6.9266022960000555,1933,1338,492
6.929295967998769,1923,1328,495
6.931989431999682,1962,1386,533
6.934684103000109,1964,1383,528
6.937377274998653,1954,1414,549
6.940073447000032,1942,1379,508
6.942766285999824,1936,1345,496
6.945456707999256,1931,1342,495
6.9481515049992595,1931,1299,467
6.950845509998544,1990,1378,534
6.953535224000007,2023,1404,538
6.95622810399982,2005,1423,546
6.958920650999062,1981,1441,556
6.961611197999446,1953,1367,496
6.96430578699983,1942,1363,507
6.966997542000172,1935,1330,484
6.969687630999033,1941,1344,506
6.972377885998867,2001,1394,541
6.9750689749998855,2000,1405,535
6.977758646999064,1983,1440,563
6.980447443998855,1955,1389,511
6.983142031998796,1942,1360,502
6.985833912000089,1937,1348,496
6.988528668000072,1934,1300,464
6.991225880999991,1988,1392,538
6.993912095000269,2010,1401,535
6.996617016999153,1996,1427,549
6.9993108969993045,1968,1425,542
7.0020061939994775,1952,1365,501
7.004703365999376,1939,1360,502
7.007409871999698,1931,1321,481
7.010110834999068,1956,1358,525
7.012834424000175,1999,1397,537
7.015526678998867,1994,1403,533
7.018308517999685,1970,1442,563
7.021039481998741,1955,1375,503
7.023733279000226,1939,1359,506
7.026424742000017,1935,1335,492
7.029114872999344,1930,1317,484
7.031839627999943,1989,1392,542
7.034547966999526,1996,1395,527
7.0372417219987256,1978,1425,554
7.039938101999724,1955,1394,528
7.042632315999072,1942,1359,496
7.045322945999942,1936,1350,496
7.048015784999734,1931,1307,471
7.050712497999484,1975,1370,528
7.053408878999107,2011,1397,538
7.05610650899871,1999,1420,545
7.058800763999898,1971,1444,560
7.061491769998611,1952,1364,496
7.064184899998509,1937,1361,505
7.066892529999677,1931,1331,486
7.069602951998604,1935,1334,498
7.07229766599994,2007,1397,539
7.074991337998654,2007,1406,533
7.077682676999757,1983,1439,560
7.080373764998512,1963,1389,511
7.083067019999362,1943,1360,500
7.085760691999894,1936,1349,496
7.088455780998629,1926,1305,468
7.0911505359999865,1987,1390,535
7.093842874999609,2013,1403,533
7.096536171999105,1995,1425,551
7.09923342699949,1970,1433,543
7.10192534899943,1952,1364,496
7.10461835499882,1939,1360,502
7.107308525999542,1936,1327,473
7.110000032000244,1951,1355,511
7.112694994999401,2016,1403,536
7.115389875998517,2011,1407,535
7.118085088999578,1984,1450,565
7.1207828859987785,1959,1387,507
7.123480891999861,1939,1362,496
7.1262022299997625,1936,1344,497
7.128897069000232,1931,1309,481
7.131592574000024,1984,1392,542
7.134286870999858,1999,1397,532
7.136978917998931,1983,1421,544
7.1396716729996115,1965,1409,531
7.142365969999446,1943,1360,496
7.145056183999259,1936,1358,501
7.147749689000193,1935,1315,474
7.1504465699999855,1973,1365,523
7.153138907999164,2018,1403,535
7.155833746999633,2006,1415,542
7.158527543999298,1984,1456,566
7.161219132998667,1959,1375,497
7.163912930000151,1939,1363,505
7.16660710099859,1936,1338,493
7.169298106999122,1927,1323,491
7.171989569998914,1999,1394,541
7.174679366999044,2007,1402,534
7.177369248000105,1985,1430,558
7.180061544999262,1965,1402,527
7.182752216998779,1946,1362,501
7.185440346998803,1936,1355,498
7.188130893999187,1931,1312,473
7.190822773998661,1981,1377,530
7.193509654000081,2031,1409,538
7.196201159998964,2015,1424,545
7.198893914999644,1988,1455,560
7.201583711999774,1961,1373,499
7.204275967000285,1941,1367,507
7.206968180998956,1936,1335,489
7.209658603000207,1936,1339,502
7.212353107999661,2008,1403,541
7.21504948799884,2011,1406,537
7.217741368998759,1990,1443,560
7.220436374000201,1963,1392,511
7.223127920999104,1942,1361,502
7.225817675998769,1935,1353,497
7.228510932000063,1931,1306,468
7.2312018949996855,2006,1392,543
7.233935025999017,2051,1413,539
7.236643655998705,2025,1438,557
7.239337869999872,1990,1440,547
7.242028374999791,1959,1375,501
7.244720754999435,1945,1373,509
7.247416259999227,1936,1328,481
7.250108140999146,1940,1355,511
7.252810603999023,2000,1397,541
7.255504400998689,1998,1405,538
7.25822315699952,1978,1443,563
7.260915536999164,1955,1382,502
7.263608625999041,1939,1360,498
7.266301338999256,1936,1342,487
7.2689904700000625,1931,1309,480
7.271680558000298,2020,1401,546
7.274369063999984,2053,1411,539
7.277059193998866,2022,1444,559
7.2797488659998635,1984,1427,541
7.2824400379995495,1955,1377,501
7.285130417998516,1939,1366,503
7.287823048000064,1933,1326,479
7.290514970000004,1963,1372,526
7.2932076010001765,2032,1409,539
7.295900938999694,2019,1424,544
7.298604985999191,1990,1459,574
7.301307116998942,1964,1379,501
7.304003162998924,1943,1369,506
7.306696043999182,1936,1342,493
7.309389631998783,1933,1327,491
7.312084596000204,1997,1395,540
7.314778350999404,2000,1401,533
7.317469022998921,1978,1431,558
7.320162611998967,1962,1397,523
7.322855366999647,1946,1360,499
7.325546623000264,1922,1344,493
7.328241377999802,1931,1309,470
7.33096546699926,1986,1379,531
7.3336722219992225,2035,1410,539
7.336365436000051,2019,1425,548
7.339055815999018,1986,1454,560
7.341749028999402,1958,1371,494
7.344443160000083,1944,1369,510
7.3471338729996205,1935,1338,487
7.349821878999137,1937,1344,501
7.35251021699878,2035,1408,545
7.355198055998699,2034,1419,542
7.3578846029995475,2004,1456,563
7.360573066000143,1971,1403,511
7.363261904998581,1949,1371,508
7.365949368999281,1936,1358,501
7.36864495699956,1935,1310,473
7.371337462998781,1994,1393,542
7.374025760000222,2017,1407,538
7.376712931998554,2000,1429,549
7.379400562000228,1972,1429,549
7.3820875250003155,1946,1366,499
7.384774113999811,1938,1363,508
7.387462368998968,1925,1328,486
7.390149040998949,1953,1350,509
7.392876046998936,2029,1406,541
7.395567384999595,2023,1417,540
7.3982565159985825,1991,1453,566
7.400942812999347,1967,1392,511
7.403630942999371,1945,1367,507
7.406320989999585,1936,1346,494
7.4090110369998,1929,1312,480
7.411700041999211,1994,1395,544
7.414387421998981,2003,1397,533
7.417073718999745,1984,1424,553
7.419764890999431,1967,1414,534
7.422456812999371,1943,1361,496
7.42514415199912,1936,1360,502
7.427833114999885,1935,1319,474
7.430521286998555,1969,1365,527
7.433209042999806,2032,1408,539
7.435936339999898,2022,1421,547
7.438629761998527,1987,1458,571
7.4413197670000955,1963,1381,497
7.444008730999485,1944,1369,507
7.446696236000207,1936,1344,493
7.449388949999047,1929,1318,486
7.45208637199903,1996,1398,543
7.454793918999712,1998,1399,534
7.457489298998553,1974,1429,558
7.460175095999148,1959,1397,528
7.462862642998516,1946,1359,497
7.465547648000211,1936,1355,502
7.468245444999411,1933,1311,471
7.470941034000134,1980,1375,528
7.473633121999228,2029,1408,539
7.476321377998829,2011,1424,543
7.479010549999657,1984,1455,561
7.4817002629988565,1959,1372,496
7.484389851999367,1939,1363,503
7.487078606998693,1934,1335,488
7.489765070999056,1936,1333,496
7.4924520759996085,2009,1400,539
7.495138164998934,2014,1406,533
7.497824711999783,1993,1441,560
7.500513174998559,1967,1395,511
7.503203929998563,1942,1361,501
7.505893143999856,1937,1354,498
7.508582815999034,1929,1309,465
7.51126994599872,1981,1386,535
7.513956201999463,2010,1399,533
7.516642164999212,1991,1421,544
7.5193365039995115,1968,1435,547
7.522028425999451,1951,1363,496
7.524718430999201,1941,1362,502
7.527406519999204,1932,1327,483
7.530093358000158,1936,1344,507
7.5327808639995055,2002,1395,539
7.535471160999805,1999,1406,533
7.538159333000294,1979,1441,560
7.540897629998653,1956,1387,511
7.543593759999567,1946,1360,501
7.546285307000289,1936,1344,492
7.548974186998748,1933,1299,466
7.551665316999788,1991,1392,539
7.554357031000109,2007,1402,531
7.55704470299861,1989,1425,552
7.55973320799967,1968,1421,541
7.562422921999314,1949,1361,496
7.565113261000079,1938,1360,502
7.567803308000293,1933,1323,477
7.570497062999493,1955,1360,525
7.573189359998651,2025,1405,542
7.5758779070001765,2011,1414,539
7.578579703998912,1984,1454,563
7.581264708998788,1963,1382,501
7.583955713998876,1947,1365,506
7.586645344999852,1936,1343,496
7.589334391999728,1931,1317,483
7.59202535499935,2000,1397,542
7.594714360999205,2011,1402,535
7.597402823999801,1990,1430,557
7.600093203998767,1968,1410,531
7.602782459998707,1949,1362,501
7.605468839999958,1936,1359,502
7.608157011998628,1935,1313,475
7.610844475999329,1973,1370,524
7.613530147998972,2033,1409,535
7.616216652999356,2021,1424,545
7.618909282999084,1987,1460,571
7.621600037999087,1965,1376,497
7.624288876999344,1943,1370,501
7.626978006999707,1935,1340,490
7.6296672629996465,1931,1329,494
7.632356767999227,2005,1398,541
7.635045273000287,2012,1406,534
7.637768986998708,1991,1437,560
7.640459659000044,1966,1398,525
7.643149371999243,1946,1364,497
7.64583737799876,1938,1357,498
7.6485272999998415,1936,1310,470
7.651216262998787,1993,1390,534
7.65390335200027,2029,1408,535
7.656590732000041,2006,1426,550
7.659277363000001,1985,1449,559
7.661964908998925,1959,1371,496
7.664654497999436,1945,1371,507
7.667344044999481,1936,1337,485
7.670035466999252,1936,1344,503
7.6727266809994035,1968,1392,531
7.675416518999555,1968,1389,528
7.678106149998712,1951,1424,555
7.680791529999624,1937,1371,506
7.683481659998506,1933,1349,495
7.686196956999993,1932,1340,493
7.689713421999841,1927,1296,464
7.692413385999316,1986,1387,539
7.695104515998537,2014,1402,539
7.697791896998751,1990,1434,557
7.700482068999918,1967,1396,511
7.703170949000196,1952,1361,502
7.70585774599931,1937,1354,496
7.708546709000075,1919,1297,462
7.71123513099883,1969,1378,533
7.7139224279999326,1997,1395,535
7.716610558998582,1985,1415,542
7.7193048970002565,1966,1437,554
7.721996402999139,1950,1361,495
7.7246875330001785,1942,1361,503
7.727378288000182,1935,1327,480
7.730066084999635,1936,1341,498
7.732755089999046,2007,1396,537
7.735444428999472,2010,1406,533
7.738129933999517,1986,1441,561
7.74084739799946,1963,1392,511
7.743537237000055,1946,1361,502
7.746249241999976,1936,1349,496
7.748937913998816,1933,1302,466
7.751627419000215,1977,1385,533
7.754315382999266,2005,1401,531
7.757003595999777,1994,1424,547
7.759692267998616,1969,1427,544
7.762380148999,1953,1360,496
7.765065861998664,1939,1361,501
7.767753242998879,1935,1325,480
7.7704449979992205,1943,1351,511
7.773139169999922,2000,1395,537
7.775826508999671,1999,1406,535
7.778516013999251,1979,1445,562
7.781199310999,1962,1381,502
7.78388781600006,1943,1361,503
7.786586570999134,1935,1344,493
7.789274785000089,1930,1308,478
7.791964664998886,1970,1390,541
7.794652921000306,1984,1392,529
7.797340467999675,1971,1418,545
7.800030472999424,1957,1408,529
7.802718852999533,1941,1357,496
7.805404816999726,1935,1351,501
7.80809211399901,1936,1314,474
7.810781160998886,1966,1363,525
7.813468082998952,2019,1403,539
7.816157088000182,2013,1415,541
7.81885342699934,1985,1456,567
7.821545847999005,1963,1377,498
7.824234978999812,1947,1365,503
7.826923400998567,1936,1343,492
7.829610863998823,1932,1323,490
7.832299285999397,2002,1399,540
7.834986249999929,2017,1405,537
7.837672255000143,1995,1438,555
7.8404001769995375,1967,1407,527
7.843091140999604,1947,1365,498
7.84577431300022,1936,1360,499
7.848462317999292,1929,1313,470
7.851156364999042,1983,1376,529
7.853847036998559,2031,1405,532
7.856537583998943,2015,1428,547
7.859224713998628,1987,1456,565
7.861911469999541,1963,1377,498
7.8646045999994385,1940,1369,505
7.867290854999737,1935,1337,486
7.8699799019996135,1936,1335,497
7.872670740998728,2001,1399,543
7.875359288000254,2005,1406,538
7.878046625999559,1985,1439,561
7.880732132000048,1961,1392,511
7.883424469999227,1946,1361,502
7.88611226699868,1936,1353,498
7.888834563998898,1931,1310,467
7.8915239029993245,1984,1390,541
7.894240241999796,2013,1405,540
7.896931371999017,2001,1425,549
7.899621085000035,1971,1436,548
7.902310173998558,1956,1365,493
7.904998887999682,1941,1367,506
7.907687600998543,1936,1328,482
7.9103739820002374,1942,1346,508
7.913060904000304,2000,1399,536
7.915756700998827,1999,1406,536
7.918445621999126,1973,1441,561
7.921138918998622,1956,1387,510
7.923833883000043,1939,1360,501
7.926530847000322,1936,1344,494
7.929217434999373,1934,1303,473
7.931905856999947,1999,1394,544
7.9345935709989135,2026,1407,534
7.937279492998641,2001,1431,555
7.9399684149993845,1974,1425,542
7.942656502998943,1953,1371,500
7.945341925000321,1939,1363,505
7.948029388999203,1932,1325,480
7.9507168529999035,1953,1360,527
7.953404566000245,2019,1405,540
7.956092655000248,2017,1413,536
7.958781159999489,1990,1455,568
7.961467123999682,1961,1385,503
7.964155670999389,1945,1365,503
7.966842926000027,1935,1344,494
7.969530889999078,1933,1318,485
7.972224227998595,2016,1402,544
7.9749150249990635,2033,1412,539
7.977600321999489,2006,1442,560
7.980286285999682,1978,1418,531
7.982973873999072,1952,1370,499
7.985660004998863,1938,1361,502
7.988348093000241,1934,1321,472
7.9910358489996725,1967,1373,526
7.993724145999295,2013,1406,535
7.996411901000101,2002,1415,544
7.9990998649991525,1979,1456,567
8.001785995000319,1957,1371,496
8.004472791999433,1939,1365,506
8.00715921399933,1936,1338,490
8.00984446899929,1934,1325,492
8.012532224000097,1990,1392,538
8.015221187999487,1995,1393,529
8.017909151998538,1973,1426,554
8.020648615000027,1956,1392,511
8.023366120998617,1943,1360,496
8.026054918000227,1934,1351,496
8.028743464999934,1931,1307,466
8.031430177999937,1982,1379,532
8.034115682999982,2011,1403,531
8.036841979999735,1999,1422,541
8.039531443999294,1973,1439,547
8.042269782999938,1951,1361,495
8.044961870999032,1939,1363,499
8.047652043000198,1933,1328,480
8.05034242399961,1941,1345,503
8.05302951199883,2000,1396,541
8.05571726800008,1999,1403,535
8.058405314999618,1981,1435,560
8.061090777999198,1957,1386,511
8.063778241999898,1942,1360,501
8.066465705000155,1930,1349,496
8.069166335999398,1931,1298,467
8.071857840999655,2001,1394,538
8.074547554999299,2032,1409,539
8.07726430999901,2014,1434,553
8.079976439999882,1982,1437,550
8.082664736999504,1958,1370,496
8.085350617999211,1941,1366,501
8.088037080999129,1933,1327,479
8.090724710998984,1941,1360,511
8.093411799998648,1988,1394,535
8.096102179999434,1983,1403,535
8.100374229999943,1968,1442,563
8.103068860998974,1939,1350,496
8.10575894899921,1936,1350,498
8.108449370998642,1927,1306,472
8.111140543000147,1969,1361,525
8.113831423999727,2002,1394,530
8.116521762000048,1991,1409,543
8.11921005899967,1969,1449,566
8.121898563998911,1953,1366,496
8.124587319998682,1937,1360,505
8.12727490799989,1935,1333,491
8.129961663998984,1931,1326,494
8.132650335999642,2006,1398,541
8.135338423999201,2021,1408,533
8.138021388000197,1996,1439,560
8.140711142999862,1968,1402,526
8.14340506499866,1951,1363,503
8.14609598700008,1936,1357,498
8.148784991999491,1931,1311,472
8.15147416400032,1978,1380,534
8.154162544999053,2023,1405,536
8.156886466998913,2003,1424,545
8.159575972000312,1982,1447,555
8.162265393999405,1955,1360,489
8.164952148999873,1942,1367,503
8.167638320999686,1936,1334,482
8.170326992998525,1929,1341,499
8.173015497999586,1985,1394,533
8.175707503998638,1986,1395,528
8.178396051000163,1970,1429,556
8.181086263999532,1954,1381,508
8.18377326999871,1942,1359,499
8.186461108000003,1931,1345,496
8.18915148799897,1931,1299,464
8.191836451998824,1995,1390,535
8.194524915999864,2028,1408,534
8.19721071299864,2007,1430,550
8.199899675999404,1978,1435,549
8.202586014998815,1955,1369,499
8.205274436999389,1939,1366,506
8.207965816998694,1936,1328,478
8.210653197000283,1947,1355,511
8.213339828000244,2001,1399,535
8.216029457998957,1997,1406,535
8.218716837998727,1978,1444,563
8.221401968999999,1956,1379,507
8.224089391000234,1941,1360,505
8.226777186999243,1936,1343,492
8.229465151000113,1926,1307,477
8.23215340599927,2011,1396,545
8.234839869999632,2030,1407,536
8.237529083999107,2005,1438,553
8.240219421999427,1974,1424,538
8.242944052999519,1955,1371,500
8.245632682999712,1936,1366,505
8.24832206300016,1934,1324,474
8.251010609999867,1968,1372,527
8.253697281999848,2045,1414,543
8.256394995998562,2032,1424,546
8.259089417999348,2000,1472,571
8.261775672999647,1968,1392,501
8.264476177999313,1941,1365,501
8.267168266998851,1936,1351,494
8.26985714699913,1932,1328,492
8.272548193999683,2017,1408,544
8.275235866000003,2039,1415,539
8.27792208000028,2010,1447,560
8.280608252000093,1982,1419,529
8.283295631999863,1955,1374,499
8.285979553998914,1937,1366,503
8.288667558999805,1933,1322,471
8.291357689999131,1975,1379,527
8.29404211200017,2029,1411,544
8.296731491998798,2011,1424,548
8.299423954998929,1985,1456,561
8.302109835998635,1959,1377,497
8.304833382999277,1943,1373,507
8.307524804999048,1936,1339,493
8.310241727000175,1936,1335,496
8.312930273999882,2016,1403,539
8.315619528999378,2017,1408,534
8.31830653399993,1992,1443,555
8.320993330999045,1968,1395,511
8.323683253000127,1947,1366,502
8.326370591999876,1936,1353,498
8.32905680499971,1933,1311,467
8.331744351999077,1990,1392,538
8.334436357999948,2031,1409,534
8.337123487999634,2009,1430,549
8.3398112019986,1983,1444,554
8.342499831998794,1955,1373,498
8.345185586998923,1942,1370,506
8.34787280099954,1936,1330,490
8.350564680999014,1941,1349,505
8.353250102998572,2017,1403,542
8.355938900000183,2019,1411,538
8.358625779999784,1995,1454,563
8.361313243998666,1968,1394,511
8.36399924899888,1951,1367,505
8.366689921000216,1939,1345,492
8.3693772179995,1936,1303,471
8.372065514999122,2003,1399,547
8.374752394998723,2030,1411,539
8.37743973400029,2000,1433,555
8.380125572999532,1971,1430,544
8.382813035999789,1945,1369,501
8.385496582999622,1931,1362,508
8.388185922000048,1927,1321,480
8.39087442699929,1956,1359,511
8.393562598999779,2032,1407,543
8.396251853999274,2021,1415,542
8.398942109999552,1995,1456,566
8.401630197999111,1965,1389,504
8.404318744998818,1947,1367,500
8.40700604199992,1936,1345,496
8.409692006000114,1935,1314,482
8.412378719000117,1990,1392,544
8.415066432999083,2000,1399,534
8.417752229999678,1987,1426,554
8.42044023499875,1963,1409,531
8.423126615000001,1947,1360,498
8.42581316199903,1937,1358,501
8.42850162600007,1933,1316,482
8.431191214998762,1969,1367,527
8.43387988699942,2041,1411,537
8.436569808998684,2032,1424,544
8.439257396999892,1997,1461,568
8.441943111,1968,1382,501
8.444666782999775,1947,1371,509
8.447359038000286,1936,1345,491
8.450048501999845,1931,1328,494
8.452738923999277,2029,1408,543
8.455426178999915,2047,1418,537
8.45811226799924,2017,1455,563
8.460830397998507,1983,1419,528
8.463522527999885,1958,1377,503
8.46623665900006,1940,1364,503
8.468925913999556,1932,1311,470
8.471622418999686,2016,1383,528
8.47431850799876,2092,1424,528
8.477006887998868,2064,1447,549
8.479694935000225,2013,1471,561
8.482383898999615,1970,1383,496
8.48506677899968,1943,1379,505
8.487765408999621,1933,1342,483
8.490456247998736,1929,1342,499
8.493142461999014,2076,1421,542
8.495828924998932,2082,1427,539
8.498518930999126,2033,1482,576
8.50120768600027,1987,1424,530
8.503896107999026,1956,1391,511
8.50658615499924,1940,1370,503
8.509272867999243,1934,1319,473
8.51196087399876,1991,1401,545
8.514647920999778,2022,1415,539
8.51733350900031,2003,1435,555
8.520022056000016,1976,1441,557
8.522710145000019,1957,1371,502
8.525397567000255,1939,1365,509
8.528086779999285,1933,1329,485
8.530773951999436,1950,1356,511
8.533462624000094,1999,1402,542
8.536150879999695,1998,1405,537
8.538839759999973,1977,1443,561
8.541526514998623,1954,1385,511
8.544224269999177,1938,1360,501
8.546915150998757,1936,1344,494
8.549601488999542,1933,1306,476
8.552287869999418,2011,1396,544
8.554976624998744,2029,1408,537
8.55766487999972,2011,1437,557
8.56035363599949,1978,1427,539
8.563040556999113,1954,1371,498
8.565726895998523,1937,1365,505
8.568416317999436,1935,1325,481
8.571105989998614,1953,1360,511
8.573791161999907,2025,1408,545
8.576478708999275,2015,1420,545
8.579167213998517,1990,1456,569
8.581854135998583,1966,1382,502
8.584540515999834,1946,1367,508
8.587228147000133,1934,1343,495
8.58991131899893,1927,1318,485
8.592603823999525,2006,1401,543
8.595292453999718,2025,1408,531
8.597979792999467,2002,1438,560
8.600669673000084,1971,1414,529
8.603358636999474,1952,1366,499
8.606046474998948,1936,1360,502
8.60873556399929,1935,1317,476
8.61142352800016,1968,1371,526
8.614110450000226,2006,1402,535
8.616826412999217,1995,1417,543
8.619516543998543,1977,1453,565
8.622230298999057,1953,1362,499
8.62492051299887,1939,1363,506
8.627611017998788,1935,1334,489
8.630302190000293,1931,1328,493
8.632989069999894,2027,1402,545
8.635676949999834,2032,1410,539
8.63836495599935,2001,1443,563
8.641053460998592,1969,1405,525
8.643742882999504,1949,1371,505
8.646464596999067,1936,1360,501
8.649153934999049,1934,1314,473
8.651843648998693,1975,1384,534
8.654533820999859,2009,1403,541
8.657221743000264,1999,1423,546
8.659911664999527,1971,1439,555
8.662601669999276,1955,1367,496
8.66528734199892,1939,1363,505
8.667974555999535,1936,1329,485
8.6706608530003,1936,1342,505
8.673347857999033,1999,1391,531
8.676038280000284,1999,1403,532
8.678733992999696,1979,1441,560
8.681420457000058,1959,1387,511
8.684108920999279,1945,1360,499
8.686799675999282,1935,1349,497
8.689483848000236,1929,1301,467
8.69217410300007,1988,1391,543
8.694864441999016,2013,1404,537
8.697552947000077,1994,1424,553
8.700242785998853,1970,1426,545
8.702931623998666,1951,1364,499
8.705619462998584,1938,1364,507
8.70830771799956,1935,1328,480
8.71099589000005,1957,1360,511
8.713682395999058,2021,1406,541
8.7163701089994,2016,1408,537
8.71907065599953,1987,1451,565
8.721758994999618,1963,1389,507
8.724448457998733,1940,1367,506
8.727137963998757,1936,1345,496
8.729823386000135,1930,1311,481
8.732511057998636,1998,1397,545
8.735201770999993,2015,1407,536
8.737889109999742,1994,1431,556
8.740578697999808,1968,1417,537
8.743266036999557,1950,1363,501
8.745950667000216,1939,1361,505
8.748638338998717,1933,1321,480
8.751328510999883,1966,1367,527
8.754018016999908,2032,1408,541
8.756707063999784,2029,1423,545
8.75939552699856,1999,1457,576
8.762082531999113,1968,1382,503
8.764771913000004,1945,1371,507
8.767505084999357,1936,1345,493
8.770261339999706,1935,1327,494
8.772953886998948,2011,1404,544
8.775646058998973,2027,1403,529
8.778335522998532,2004,1446,560
8.781023944999106,1974,1409,528
8.783712616999765,1952,1371,507
8.786401997000212,1937,1360,503
8.789086001999749,1934,1317,477
8.791774424000323,1978,1380,533
8.794463887999882,2010,1406,540
8.7971503509998,2000,1422,547
8.79983931499919,1979,1447,560
8.802527986999849,1957,1366,498
8.805208742000104,1942,1363,508
8.807897830998627,1934,1334,489
8.810588335998546,1935,1338,501
8.813277507999373,2016,1399,543
8.815968262999377,2021,1408,535
8.818658559999676,1990,1445,562
8.821346273998643,1968,1397,511
8.824037028998646,1951,1367,499
8.82672553500015,1938,1355,499
8.829412372999286,1931,1309,471
8.832100753999839,1984,1390,540
8.834791549999863,2016,1405,537
8.837476556000183,2000,1425,551
8.84016531099951,1975,1434,550
8.842852065999978,1947,1366,496
8.845540696998796,1940,1363,506
8.848263201998634,1936,1328,484
8.850955040999906,1947,1354,510
8.853641670999423,2000,1398,539
8.856330634998812,2001,1408,534
8.859020514999429,1982,1445,563
8.861711894998734,1958,1387,509
8.864405316999182,1942,1361,502
8.867095405999862,1936,1344,496
8.869777910998891,1933,1305,474
8.872471999999107,2011,1397,547
8.875166963000083,2033,1408,538
8.877858259998902,2010,1429,548
8.880551640999329,1977,1428,535
8.883240061999459,1953,1372,497
8.885928443000012,1938,1365,506
8.888616739999634,1935,1327,481
8.891306702998918,1959,1365,511
8.893999416999577,2017,1407,541
8.896686922000299,2010,1417,542
8.899376760999075,1984,1451,570
8.902063932999226,1958,1377,506
8.904753479999272,1941,1363,506
8.907441192999613,1934,1343,496
8.910129406998749,1930,1318,488
8.912850161999813,2002,1401,545
8.915542167998865,2015,1403,534
8.918253255998934,1991,1434,557
8.920941886999572,1967,1408,528
8.92363268400004,1950,1364,499
8.926326814000276,1936,1360,498
8.929013360999306,1933,1312,474
8.93170149099933,1993,1377,529
8.934390495998741,2064,1418,543
8.937077085000055,2043,1438,552
8.939764589998958,2000,1471,572
8.942455929000062,1967,1383,507
8.94514510099907,1947,1376,511
8.947833522999645,1935,1344,490
8.95052227799897,1935,1335,497
8.953208658000221,2007,1404,542
8.955895788998532,2016,1408,535
8.958584501999212,1993,1442,562
8.96127050799987,1968,1398,511
8.963958679998541,1950,1365,503
8.966646767999919,1936,1358,502
8.969332482000027,1933,1310,468
8.972021986999607,1987,1389,539
8.97471007599961,2037,1413,541
8.977397580998513,2021,1428,551
8.980087586000082,1987,1452,558
8.982773841999006,1963,1377,498
8.985462096999981,1937,1370,509
8.988151351999477,1936,1335,490
8.990838732999691,1938,1346,508
8.993527070999335,2021,1403,544
8.996218700998725,2023,1411,541
8.998907164999764,1994,1450,564
9.001595836998604,1968,1393,523
9.004289800999686,1946,1366,500
9.006984681000176,1935,1351,496
9.009674478000306,1934,1306,466
9.01236256700031,2000,1393,542
9.015049862999149,2030,1408,538
9.017735534998792,2011,1434,555
9.020422165998752,1981,1435,549
9.023156338000263,1958,1373,500
9.025866635000057,1943,1370,509
9.028557181998622,1936,1327,482
9.031246728998667,1958,1360,522
9.033934650999072,2054,1417,547
9.036623072999646,2046,1429,547
9.039313870000115,2010,1467,569
9.042002041998785,1979,1395,511
9.044690421998894,1953,1378,510
9.047377969000081,1937,1350,496
9.050066973999492,1931,1319,486
9.052754729000299,1967,1392,543
9.055443567998736,1970,1391,531
9.058128990000114,1964,1414,551
9.060845578998851,1946,1399,528
9.063535958999637,1924,1341,487
9.06624804799867,1936,1349,501
9.068939220000175,1930,1311,473
9.071630765998634,1966,1361,523
9.074319063000075,2012,1400,533
9.077006318999338,2003,1413,541
9.079707156999575,1979,1453,561
9.082412453999495,1957,1365,497
9.085120001000178,1941,1363,503
9.08785792299932,1936,1333,490
9.090574928999558,1935,1328,494
9.09327255899916,2035,1407,545
9.095967605999249,2053,1419,539
9.098664610999549,2017,1456,561
9.101361241999257,1982,1408,525
9.104060871999536,1955,1374,502
9.106759043999773,1938,1360,499
9.109452423999755,1929,1313,475
9.112148554999294,2000,1392,539
9.114845767999213,2053,1419,543
9.11753885699909,2028,1439,556
9.12023340399901,1995,1455,559
9.122929866998675,1963,1378,501
9.1256220389987,1941,1374,510
9.12831537799866,1934,1335,483
9.13101021699913,1940,1351,510
9.133707097000297,2007,1402,539
9.136403976999645,2000,1406,539
9.139100315998803,1981,1443,562
9.141793112999949,1957,1390,511
9.144487576999381,1939,1361,507
9.147184415000083,1936,1344,496
9.149876587000108,1931,1299,470
9.152571425998758,2000,1393,539
9.155265138999312,2028,1407,534
9.157955144999505,2006,1433,554
9.160649067000122,1974,1427,542
9.163341239000147,1955,1372,497
9.166035076999833,1941,1366,505
9.168731290999858,1936,1328,479
9.171426129998508,1958,1365,525
9.174118342998554,2019,1406,541
9.176842389999365,2015,1415,540
9.17953831199884,1987,1456,568
9.18225769199853,1963,1381,505
9.184953905998555,1945,1363,498
9.18764882799951,1935,1343,490
9.190341499999704,1932,1321,485
9.193032047000088,1998,1397,545
9.19572488599988,2011,1403,534
9.198417515999608,1994,1434,559
9.201109062998512,1969,1408,531
9.203804026999933,1949,1366,499
9.206497657,1937,1358,501
9.209187619999284,1936,1314,475
9.211881166998865,1973,1374,529
9.214574922998509,2025,1408,543
9.217268594999041,2013,1424,548
9.219963266999912,1989,1456,561
9.222657897000317,1958,1374,499
9.225347693998629,1943,1366,503
9.22804157399878,1936,1337,490
9.230739745999017,1936,1335,499
9.233434918000057,2031,1409,543
9.236131047999152,2040,1419,541
9.238825344998986,2009,1456,566
9.241517851000026,1975,1407,526
9.244213772999501,1953,1374,505
9.246906944999864,1939,1360,499
9.249641491998773,1931,1312,471
9.252350871998715,1991,1392,539
9.255048043998613,2037,1414,538
9.257740840999759,2022,1438,553
9.260438596000313,1985,1445,554
9.26313676799873,1957,1376,500
9.265830524000194,1943,1371,503
9.268524236998928,1936,1333,480
9.271220783999524,1949,1355,511
9.273913248000099,2000,1399,537
9.276607210998918,1999,1407,538
9.279301549999218,1979,1441,560
9.281992096999602,1957,1383,507
9.284687101999225,1942,1360,501
9.287381940999694,1936,1338,486
9.290073362999465,1927,1309,479
9.292764576999616,2010,1401,543
9.295455248999133,2034,1413,538
9.298146670998904,2011,1439,555
9.300865883998995,1981,1425,535
9.303560222999295,1955,1370,502
9.306255435998537,1938,1363,505
9.308945400000084,1933,1324,477
9.311639654999453,1967,1367,523
9.31433436899897,2015,1404,537
9.317026082999291,2000,1417,542
9.319717212998512,1981,1453,567
9.3224114679997,1955,1373,498
9.325104014998942,1942,1365,506
9.327801104000173,1934,1338,490
9.33049119199859,1934,1325,490
9.333196239000245,2000,1397,543
9.335899327999869,2007,1403,538
9.338595375000295,1989,1435,557
9.341286963999664,1966,1403,524
9.343981343999985,1945,1363,498
9.346676765999291,1936,1357,502
9.349367895998512,1933,1306,471
9.352063817999806,1981,1379,529
9.35475840700019,2032,1409,538
9.357452578999073,2017,1427,547
9.360149750998971,1986,1453,560
9.362844755998594,1959,1372,499
9.365537177998704,1942,1367,510
9.368232724998961,1935,1337,489
9.370926396999494,1936,1342,500
9.373618818999603,2031,1407,542
9.376312407999649,2034,1415,538
9.379006870998637,2005,1454,562
9.38169841799936,1970,1403,522
9.384393673999512,1949,1370,501
9.38708551199852,1938,1359,498
9.38977389199863,1933,1305,464
9.392465188999267,1987,1394,542
9.395155360998615,2030,1408,537
9.39784865799993,2007,1430,551
9.40053953899951,1983,1440,547
9.403233502000148,1955,1372,497
9.405924965998565,1942,1366,506
9.408619137999267,1935,1328,480
9.411315351999292,1952,1359,511
9.414007647999824,2021,1408,541
9.416702319998876,2018,1414,541
9.41939657599869,1990,1452,565
9.422088455999983,1965,1392,511
9.424784127999374,1943,1365,505
9.42747988299925,1936,1347,494
9.430197972000315,1931,1310,482
9.432893143999536,2007,1399,545
9.435589815999265,2026,1409,539
9.438285154999903,2001,1436,555
9.440975202000118,1974,1423,534
9.44366774899936,1953,1367,499
9.446365419998983,1936,1360,506
9.449058591999346,1933,1318,477
9.451786055999037,1959,1366,526
9.454496477999783,1998,1398,538
9.457205982998858,1995,1411,542
9.459917238998969,1971,1448,566
9.462632576998658,1953,1366,496
9.465338165999128,1937,1362,505
9.468033170998751,1936,1334,486
9.470729217999178,1934,1325,495
9.473421181999583,2000,1394,539
9.47611531199982,2003,1399,534
9.478809192998597,1987,1431,560
9.48150073999932,1963,1393,527
9.484195369999725,1948,1361,499
9.486892541999623,1938,1354,498
9.489591588999247,1933,1310,471
9.492284885998743,1979,1377,529
9.494976390999,2007,1403,542
9.497667604999151,1997,1421,549
9.500359234998541,1968,1435,551
9.503051906998735,1951,1362,496
9.50574549599878,1939,1364,498
9.508441333999144,1929,1329,483
9.511135672999444,1934,1341,505
9.513828052999088,1979,1391,534
9.51652172499962,1980,1392,529
9.519218146999265,1964,1427,556
9.521904901999733,1949,1379,509
9.524599157999546,1937,1357,496
9.527297787999487,1936,1344,490
9.52998933500021,1930,1296,464
9.532682715000192,1980,1386,538
9.535376470999836,1985,1391,531
9.538067350998972,1977,1415,547
9.540759730998616,1962,1418,542
9.543462444999022,1938,1360,495
9.546160033998603,1939,1359,502
9.548887996999838,1936,1320,478
9.551585461000286,1959,1360,511
9.554279840998788,1991,1392,533
9.556971637999595,1987,1402,538
9.560428269998738,1968,1439,561
9.563131983999483,1953,1365,502
9.56582369699936,1937,1356,499
9.568516952998834,1936,1325,481
9.571209791000001,1940,1342,503
9.57389867100028,1994,1392,538
9.576591634999204,1991,1397,534
9.579284182000265,1973,1434,555
9.581976186998872,1952,1383,509
9.584672275999765,1942,1360,500
9.587366656000086,1936,1343,496
9.59005828699992,1934,1297,467
9.59274991699931,1983,1390,540
9.59544025499963,1984,1390,529
9.598132635999718,1977,1417,547
9.600860016000297,1961,1419,538
9.60355073000028,1942,1360,497
9.606264776999524,1936,1358,499
9.608954198998617,1933,1319,477
9.611645286999192,1951,1358,511
9.614340709000317,1995,1395,538
9.617032422998818,1989,1403,538
9.619727344999774,1969,1440,564
9.622420683999735,1952,1370,501
9.625111313998786,1939,1360,502
9.627802985998642,1934,1338,490
9.630495240999153,1931,1315,484
9.633184787999198,1984,1392,538
9.635878709999815,1994,1393,533
9.638570631999755,1975,1424,555
9.641260553999018,1956,1403,528
9.643952517999423,1943,1359,498
9.646647314999427,1936,1357,501
9.64933986199867,1933,1311,474
9.652076491998741,1963,1362,525
9.654780246999508,1983,1390,531
9.657471668999278,1969,1399,538
9.660164883000107,1958,1435,560
9.662858929999857,1943,1358,496
9.66554997699859,1938,1356,501
9.668240731998594,1934,1328,485
9.670935528998598,1935,1328,495
9.673624200999257,2013,1397,542
9.676317956000275,2016,1405,533
9.679011169999285,1993,1440,559
9.681703008998738,1966,1393,523
9.684399181000117,1949,1362,501
9.687092226999084,1936,1356,499
9.689782898998601,1934,1307,471
9.692475862999345,1968,1382,535
9.695168659998672,1987,1394,532
9.697861249000198,1978,1407,539
9.70055400399906,1963,1428,547
9.703245008999147,1947,1359,495
9.70593501499934,1937,1359,502
9.708627686999534,1936,1327,480
9.711323317000279,1941,1343,503
9.71401423899988,1984,1392,538
9.716708701998868,1984,1393,531
9.71940104100031,1968,1430,559
9.722091962999912,1953,1380,507
9.7247837599989,1945,1358,501
9.727475931998924,1939,1343,495
9.730165936998674,1936,1297,471
9.73288598399995,1999,1394,542
9.735580073000165,2011,1400,533
9.738273119999576,1997,1427,551
9.740964957998585,1968,1423,541
9.74365792199933,1941,1362,496
9.746352635998846,1930,1358,499
9.749042808000013,1920,1315,477
9.751736604999678,1951,1357,511
9.754429401999005,1984,1391,537
9.757119698999304,1982,1395,540
9.759810620998906,1968,1436,562
9.762502917999882,1951,1363,496
9.765192756000033,1939,1357,502
9.767886345000079,1936,1335,489
9.770579516998623,1935,1312,485
9.773270939000213,1981,1390,543
9.77596586099935,1989,1392,531
9.778658782999628,1978,1423,553
9.781349621000118,1956,1396,528
9.784043126999677,1942,1357,496
9.786734256998898,1938,1355,498
9.789424553999197,1935,1313,474
9.792116516999158,1966,1366,523
9.794808647999162,1993,1394,532
9.797499402999165,1984,1407,543
9.800190449999718,1967,1440,558
9.802879663999192,1947,1362,496
9.80557116899945,1938,1360,506
9.808267590999094,1936,1329,489
9.810964762998992,1935,1328,495
9.813654517998657,2000,1394,539
9.816355273000227,2003,1398,534
9.819051528998898,1982,1435,560
9.821745450999515,1963,1393,521
9.824440831000175,1936,1360,498
9.827133669999967,1936,1351,498
9.8298247169987,1936,1309,466
9.83251613900029,1979,1382,535
9.835208935999617,2000,1397,534
9.837900398999409,1986,1417,544
9.840596195999751,1967,1432,551
9.843291200999374,1951,1363,495
9.84598266499961,1936,1360,506
9.848676461999275,1936,1328,484
9.851369508998687,1945,1344,509
9.854090888999053,2003,1397,537
9.856809352999335,2003,1405,533
9.859506232998683,1979,1443,561
9.862232988998585,1962,1387,511
9.864926868998737,1941,1362,502
9.867622040999777,1936,1345,495
9.870318170998871,1933,1305,474
9.873009884999192,1989,1392,542
9.875706056998752,2004,1398,538
9.87840860399956,1990,1424,553
9.881099525999161,1967,1415,542
9.883792990000074,1945,1363,499
9.886488328000269,1938,1359,499
9.889181041999109,1933,1317,478
9.891873130000022,1955,1360,523
9.8945633860003,1999,1397,534
9.897253932998865,1986,1404,539
9.899944229999164,1968,1441,564
9.902633359999527,1950,1361,496
9.9053246149997,1937,1360,504
9.90801845399983,1935,1338,493
9.910711958998945,1933,1318,486
9.913402672998927,2000,1393,539
9.916095677999692,2013,1402,534
9.918789266999738,1988,1433,559
9.92147939699862,1965,1407,529
9.924173776998941,1945,1360,501
9.926869365999664,1936,1357,502
9.92956053799935,1932,1312,473
9.932254626999566,1979,1373,529
9.9349515899994,2025,1407,541
9.937646636999489,2010,1424,545
9.940342558998964,1982,1455,561
9.943036938999285,1958,1372,497
9.945726944999478,1941,1364,503
9.94842161699853,1931,1335,490
9.951115996998851,1934,1333,497
9.953806169000018,1995,1395,538
9.956499923999218,1990,1397,531
9.959191804999136,1973,1430,557
9.961881975999859,1953,1390,511
9.964574564999566,1941,1360,498
9.967269861999739,1936,1350,501
9.969961658998727,1934,1303,469
9.972655830999429,1986,1387,537
9.975350835999052,2015,1399,537
9.97803917499914,1995,1423,550
9.980730971999947,1971,1436,554
9.983426185999633,1949,1363,496
9.986122815998897,1941,1363,505
9.98883919599939,1935,1328,480
9.99153465999916,1941,1349,505
9.994253789998766,1998,1395,541
9.99694516999989,1995,1403,535
9.999637008999343,1973,1439,561
10.002328347998628,1953,1381,505
10.005019727999752,1937,1354,498
10.007713857999988,1935,1344,496
10.01040911400014,1929,1303,474
10.01309911899989,1985,1390,538
10.015792623999005,1997,1394,534
10.018486254999516,1982,1423,550
10.021170926000195,1965,1412,533
10.023912765000205,1943,1360,494
10.02664606199869,1938,1360,501
10.029341775998546,1931,1314,473
10.032040280999354,1971,1365,526
