time,y1,y2,y3
0.006114013001933927,2000,4095,4095
0.008867726999596925,1773,4095,4095
0.011600314999668626,1488,4095,4095
0.014335612999275327,1197,2709,3087
0.017070576999685727,1377,2028,2730
0.019807124001090415,1980,4095,4095
0.022542753999005072,1957,4095,4095
0.02527417700184742,2097,4095,4095
0.028008599001623224,1382,4095,4095
0.03073881299860659,1762,4095,4095
0.033466192999185296,1219,3891,3259
0.03672803299923544,1894,4095,4095
0.03942466399894329,1736,4095,4095
0.042115710999496514,2167,4095,4095
0.04481850799857057,1906,4095,4095
0.04753155499929562,1469,2559,3134
0.050229184998897836,1841,4095,4095
0.052920983001968125,1263,4095,3439
0.05561044600108289,1882,4095,4095
0.058304702000896214,1535,4095,3546
0.060995498999545816,1696,2595,2930
0.06368592099897796,1734,3362,3328
0.06638921800185926,2181,4095,4095
0.06908697399921948,2047,4095,4095
0.07178010400093626,1623,4095,4095
0.07447194300038973,1698,3231,3309
0.07715765700049815,2035,562,2416
0.07984537100128364,3056,4095,4095
0.08253354300177307,2748,4095,4095
0.08522013100082404,3826,4095,4095
0.08790817900080583,3014,4095,4095
0.09059801699913805,4095,4095,4095
0.09328693900170038,3376,3938,3262
0.09597856999971555,4095,4095,4095
0.09866824200071278,4095,4095,4095
0.10135578900008113,3815,4095,3730
0.10404337799991481,3062,3322,3065
0.10673080000196933,2330,2797,2862
0.10941813899989938,2160,4095,4095
0.11210656099865446,1162,4095,3682
0.11479340000005323,1217,4095,4095
0.11748207200071192,919,927,2671
0.12017045199900167,1370,4095,4095
0.12286083299841266,945,2997,3103
0.12555079700177885,1376,4095,4095
0.12824055199962459,943,4095,4095
0.13092947399854893,1040,4095,4095
0.13361627099948237,644,3509,3136
0.13630585999999312,1413,4095,4095
0.13899436499923468,1415,4095,4095
0.14168220400097198,1811,4095,4095
0.14440900100089493,1473,3250,3190
0.14711400699889055,1425,416,2545
0.14984547100175405,1888,4095,4095
0.15253914300046745,1382,4095,3521
0.15523910699994303,2069,4095,4095
0.15792794600201887,1765,2880,3165
0.16061690900096437,2466,4095,4095
0.16330524799923296,1974,2726,3137
0.16599583700008225,2401,4095,4095
0.16868250900006387,2134,4095,4095
0.1713710980002361,1776,4095,4095
0.1740590199988219,1981,4095,4095
0.176748359001067,1936,4095,3995
0.17943673899935675,2361,4095,4095
0.18213162000029115,2538,4095,4095
0.184823083000083,2478,4095,4095
0.1875143389988807,1871,2698,3163
0.19020492799973,2239,4095,4095
0.1928888080001343,1679,4027,3346
0.19557543900009478,2365,4095,4095
0.19826490199920954,2020,4095,3497
0.20095453300018562,2170,2521,2981
0.203643163000379,2178,3173,3275
0.2063319600019895,2608,4095,4095
0.20901888300068094,2361,4095,4095
0.21170709600119153,1775,4095,3745
0.2144099350007309,1827,3104,3303
0.21710152400191873,2001,710,2441
0.2197937790006108,2589,4095,4095
0.22248228500029654,2267,4095,3442
0.22517095700095524,2779,4095,4095
0.22786158700182568,2000,4095,3738
0.2305514680010674,2359,4095,4095
0.23323909800092224,1865,3526,3135
0.23592535400166526,2559,4095,4095
0.23865560899866978,2199,4095,4095
0.2413473230008094,2327,4095,3662
0.24403649500163738,2310,3052,3063
0.2467380839989346,2174,2371,2768
0.2494375480018789,2544,4095,4095
0.25213088700184016,1939,4095,3490
0.2548207250001724,2491,4095,4095
0.25751452300028177,2199,1346,2765
0.2602038609984447,2878,4095,4095
0.2628916579997167,2405,2619,3118
0.2655794140009675,2973,4095,4095
0.26826846100084367,2443,4095,4095
0.27095709100103704,2398,4095,4095
0.27364363900051103,2000,3818,4095
0.2763322270002391,2752,4095,4095
0.27902089900089777,2549,4095,4095
0.2817116129990609,3097,4095,4095
0.2844427439995343,2382,3678,3233
0.28713604099903023,2205,845,2662
0.28982558799907565,2559,4095,4095
0.2925152600000729,1968,4095,3402
0.295207056999061,2631,4095,4095
0.2978960209984507,2225,2951,3211
0.3005853180002305,3110,4095,4095
0.303275324000424,2371,2742,3152
0.305965578998439,2871,4095,4095
0.3086510430002818,2491,4095,4095
0.3113391730003059,2003,4095,4095
0.3140309289992729,2109,4095,4075
0.3167292260004615,2137,4095,3917
0.3194258559997252,2654,4095,4095
0.32211690400072257,2814,4095,4095
0.32480649200078915,2795,4095,4095
0.32749549800064415,2098,2814,3178
0.330184503000055,2452,4095,4095
0.332872134000354,1914,3710,3152
0.3355618890018377,2601,4095,4095
0.33825168600014877,2214,4095,3536
0.34093998300159,2341,2257,3033
0.3436276969987375,2339,3410,3365
0.34632816100202035,2802,4095,4095
0.3490272080016439,2485,4095,4095
0.3517177969988552,1906,4095,3568
0.35442009400139796,1947,3315,3328
0.357107432999328,2114,400,2413
0.3597969379989081,2685,4095,4095
0.3624872350010264,2323,4095,3265
0.36517478300083894,2847,4095,4095
0.36787391300094896,2025,4095,3760
0.37057537700093235,2342,4095,4095
0.3732651739992434,1861,3217,2993
0.37595609599884483,2547,4095,4095
0.3786494349988061,2190,4095,4095
0.3813409819995286,2303,4095,3952
0.3840312370011816,2277,2672,3018
0.3867212010009098,2117,1823,2688
0.3894076229989878,2437,4095,4095
0.39209775400013314,1877,4095,3443
0.39478730100017856,2416,4095,4095
0.3974763059995894,2127,1275,2787
0.40016368700162275,2669,4095,4095
0.4028518589984742,2299,2813,3121
0.4055396559997462,2795,4095,4095
0.40823395299958065,2201,4095,4095
0.4109257919990341,2225,4095,4095
0.4136170060010045,1901,4095,4095
0.4163102610000351,2608,4095,4095
0.4190055580002081,2437,4095,4095
0.42169535599896335,2736,4095,4095
0.424419360999309,2261,3762,3197
0.42711399200197775,2097,832,2678
0.4298304969997844,2432,4095,4095
0.4325200860002951,1888,4004,3350
0.43521167500148294,2519,4095,4095
0.4379015970007458,2170,3022,3218
0.4406278940004995,2949,4095,4095
0.44335464899995713,2320,2831,3190
0.44612057199992705,2783,4095,4095
0.44890682700133766,2448,4095,4095
0.4516455830016639,1904,4095,3655
0.4543430049998278,1936,3083,3344
0.4570341360013117,2107,560,2470
0.4597222660013358,2654,4095,4095
0.4624113550016773,2320,4095,4095
0.46509998500187066,2837,4095,4095
0.467789198999526,2054,4095,3631
0.47048041300149634,2369,4095,4095
0.4731747100013308,1887,3181,2960
0.47586434000186273,2559,4095,4095
0.4785530129993276,2190,4095,3614
0.4812403100004303,2291,4095,3699
0.48392952300127945,2265,3061,3071
0.4866225289988506,2107,2629,2890
0.48931124299997464,2401,4095,4095
0.49199991500063334,1856,4095,3424
0.49468862900175736,2079,4095,4095
0.4973760510001739,2096,1068,2711
0.5000649309986329,2624,4095,4095
0.5027541029994609,2288,2885,3145
0.5054425250018539,2771,4095,4095
0.5081329470012861,2023,4095,4095
0.5108225779986242,2237,4095,4095
0.5135116249985003,1863,3152,3056
0.5162018810005975,2559,4095,4095
0.518894510998507,2277,4095,4095
0.5215827249994618,2661,4095,4095
0.5242722299990419,2231,3111,3142
0.5269604019995313,2066,298,2506
0.5296467410007608,2375,4095,4095
0.5323354550018848,1843,3697,3313
0.5350248350005131,2477,4095,4095
0.5377139240008546,2124,2507,3110
0.540444138001476,2678,4095,4095
0.5431572689994937,2300,2791,3122
0.5458713570005784,2763,4095,4095
0.5485744879988488,2397,4095,4095
0.5512678679988312,1894,4095,3658
0.5539594149995537,1923,4095,3974
0.5566503379995993,2090,3831,3175
0.5593423009995604,2559,4095,4095
0.5620358900014253,2721,4095,4095
0.5647272710011748,2738,4095,4095
0.5674223589994654,2106,2703,3186
0.570117114999448,2419,4095,4095
0.5728105369998957,1938,3240,3037
0.5755054170003859,2627,4095,4095
0.5782005059991207,2250,4095,3583
0.5808968029996322,2369,2289,3123
0.5835937670017302,2363,3537,3487
0.5862876060018607,2803,4095,4095
0.588979277999897,2508,4095,4095
0.5916726169998583,1937,4095,3599
0.5943677889990795,1983,3636,3418
0.5970592949997808,2140,270,2423
0.5997583419994044,2679,4095,4095
0.6024538050005503,2320,3856,3216
0.6051463529984176,2814,4095,4095
0.6078424000006635,2011,4095,3821
0.6105374049984675,2303,4095,4095
0.6132322019984713,1826,3103,2885
0.6159294989993214,2487,4095,4095
0.6186243379997904,2112,4095,4095
0.6213154690012743,2207,4095,4095
0.6240094739987398,2165,2821,2913
0.6267022710017045,2000,1408,2593
0.6293936100009887,2300,4095,4095
0.6320879490012885,1763,3899,3366
0.6347860380010388,2379,4095,4095
0.6374785010011692,2011,1811,2928
0.640171757000644,2544,4095,4095
0.6429118880005262,2157,2736,3175
0.6456186430004891,2619,4095,4095
0.6483132319990546,2224,4095,4095
0.6510069870018924,1853,4095,4095
0.6536917010016623,2068,4095,4095
0.6564157069988141,2469,4095,4095
0.659107169998606,2407,4095,4095
0.6618271340012143,2617,4095,4095
0.664522680999653,2128,4095,4095
0.667212020001898,1951,2068,2986
0.6699057760015421,2282,4095,4095
0.672596488999261,1761,3523,3175
0.6753132869998808,2405,4095,4095
0.6780235000005632,2047,3838,3431
0.6807214229993406,2175,3228,3570
0.6834217610012274,2154,3354,3180
0.6861196829995606,2544,4095,4095
0.6888137720015948,2228,4095,4095
0.6915280280009029,1669,4095,3537
0.6942413670003589,1733,2922,3204
0.6969491640011256,1953,689,2444
0.6996471689999453,2582,4095,4095
0.7023400910002238,2301,4095,3250
0.7050311800012423,3008,4095,4095
0.7077229360002093,2309,4095,3797
0.71042156600015,3095,4095,4095
0.7131151130015496,2626,3171,2980
0.7158119519990578,3984,4095,4095
0.7185069990009652,3613,4095,4095
0.7211996299993189,4095,4095,3903
0.7238985930016497,4095,3120,2999
0.7265976820017386,4095,2064,2705
0.7292898960004095,4095,4095,4095
0.7319949849988916,3401,3952,3329
0.7346903239995299,3677,4095,4095
0.7373811620018387,2428,1575,2791
0.7400746679995791,2455,4095,4095
0.742770715001825,1687,2779,3149
0.7454707210017659,1830,4095,4095
0.7481669760018121,1264,4095,4095
0.7508597730011388,1079,4095,4095
0.7535492790011631,697,4095,4095
0.7562391169994953,1407,4095,4095
0.758933414999774,1396,4095,4095
0.7616250870014483,1693,4095,4095
0.7643190919989138,1307,4095,3309
0.7670138889989175,1246,993,2702
0.7697059780002746,1702,4095,4095
0.7724444420018699,1283,4095,3345
0.775142196998786,2047,4095,4095
0.7779109530019923,1836,3553,3329
0.7806074580003042,2643,4095,4095
0.7833052560017677,2138,2925,3221
0.7859993439997197,2606,4095,4095
0.7886935169990466,2345,4095,4095
0.7913883969995368,1791,4095,3622
0.7940803189994767,1840,2546,3114
0.7967729080010031,2011,1609,2608
0.7994704129996535,2615,4095,4095
0.8021660859994881,2468,4095,4095
0.8048588410019875,2809,4095,4095
0.8075553880007647,2019,4095,3530
0.8102519770000072,2381,4095,4095
0.8129455240014067,1879,3354,3035
0.8156423209984496,2589,4095,4095
0.8183366599987494,2211,4095,4095
0.8210287900001276,2330,3805,3472
0.8237236290005967,2319,4095,3267
0.8264193430004525,2170,3739,3682
0.8291123490016616,2512,4095,4095
0.8318089790009253,1933,4095,3402
0.8345046510003158,2043,4095,4095
0.8372001150019059,2197,867,2665
0.8399046619997534,2909,4095,4095
0.8426013759999478,2411,2886,3103
0.8453229229999124,2994,4095,4095
0.8480363039998338,2273,4095,4095
0.8507376419984212,2399,4095,4095
0.8534243979993335,2027,4095,4095
0.8561183620004158,2791,4095,4095
0.8588124090019846,2787,4095,4095
0.8615046230006556,3171,4095,4095
0.8641978359992208,2437,3441,3289
0.8668936750000285,2281,538,2553
0.8695881810017454,2687,4095,4095
0.8722815190012625,2082,4095,3377
0.8749771920010971,2804,4095,4095
0.8776690720005718,2384,3058,3201
0.8803744110009575,3413,4095,4095
0.8830688330017438,2559,2559,3121
0.8857893800013699,3301,4095,4095
0.8884833859992796,2819,4095,4095
0.8911806409996643,2186,4095,4095
0.8938770220011065,2224,3583,3099
0.896568569001829,2390,3147,3047
0.8992621990000771,3133,4095,4095
0.9019581210013712,3201,4095,4095
0.9046526269994501,3437,4095,4095
0.9073484239997924,2391,3285,3291
0.9100455129992042,2851,4095,4095
0.9127371850008785,2206,3613,3179
0.915431773999444,3008,4095,4095
0.9181264040016686,2493,4095,3805
0.9208181180001702,2618,2624,3175
0.9235145819984609,2559,4095,3744
0.9262107950016798,3282,4095,4095
0.9289040510011546,2850,4095,4095
0.9315996400000586,2167,4095,3682
0.9342971869991743,2214,4095,4095
0.9369912340007431,2368,165,2432
0.9396864480004297,3153,4095,4095
0.9423789950014907,2550,3472,3171
0.9450705419985752,3264,4095,4095
0.9477823810011614,2207,4095,4095
0.9504923860004055,2539,4095,4095
0.9531884339994576,2033,3378,2992
0.9558832719994825,2789,4095,4095
0.9585819439998886,2640,4095,4095
0.961275450001267,2864,4095,4095
0.9639714139993885,2429,2690,2997
0.966671835998568,2256,383,2416
0.9693684660014696,2653,4095,4095
0.9720650130002468,2013,4095,3440
0.9747598110006948,2686,4095,4095
0.9774506079993444,2278,2386,3071
0.9801477799992426,3081,4095,4095
0.9828424100014672,2448,2437,3082
0.9855287909995241,3018,4095,4095
0.988234630000079,2559,4095,4095
0.9909374269991531,2192,4095,4095
0.9936328490002779,2439,4095,4095
0.9963283959987166,2795,4095,4095
0.9990298599987,2886,4095,4095
1.0018027820005955,3143,4095,4095
1.0045247039997776,2416,4095,4095
1.007221585001389,2227,2992,3264
1.0099178400014353,2593,4095,4095
1.0126098040018405,2021,3827,3279
1.0153045600018231,2720,4095,4095
1.0180012730015733,2326,4095,3687
1.0206937789989752,2451,2285,3134
1.0233892840005865,2451,3713,3492
1.0260836650013516,2946,4095,4095
1.0287795449985424,2657,4095,4095
1.0314777589992445,2022,4095,3660
1.0341746390004118,2064,3728,3466
1.0368669370000134,2234,240,2441
1.0395614840017515,2981,4095,4095
1.0422564889995556,2453,4095,3227
1.044947995000257,3089,4095,4095
1.0476427920002607,2154,4095,4095
1.0504429639986483,2551,4095,4095
1.0531775950003066,2035,3499,3011
1.05587401700177,2759,4095,4095
1.0585670639993623,2557,4095,4095
1.0612576109997462,2877,4095,4095
1.0639473670016741,2415,2928,3035
1.0666377890011063,2261,346,2443
1.069331960999989,2659,4095,4095
1.0720285909992526,2028,4095,3491
1.074722887999087,2688,4095,4095
1.0774128939992806,2303,2497,3108
1.0801042329985648,3094,4095,4095
1.0827931550011272,2478,2555,3144
1.0854812020006648,3046,4095,4095
1.0881782910000766,2624,4095,4095
1.0908674210004392,2378,4095,4095
1.0935598850010138,2532,4095,4095
1.09625155699905,2839,4095,4095
1.0989412710005126,2966,4095,4095
1.1016300679984852,3170,4095,4095
1.1043201979991863,2439,4095,4095
1.1070107460000145,2271,2000,3021
1.109700918001181,2663,4095,4095
1.1124140899992199,2047,4095,3370
1.1151057620008942,2733,4095,4095
1.1178241839988914,2333,4095,3548
1.1205174810020253,3143,4095,3787
1.1232095699997444,2477,3508,3407
1.1259019509998325,2997,4095,4095
1.1285917890018027,2673,4095,4095
1.1312810449999233,2037,4095,3839
1.1339710499996727,2079,2663,3149
1.1366596810003102,2251,1356,2599
1.1393493110008421,3037,4095,4095
1.1420383170006971,2730,4095,4095
1.1447254470003827,3158,4095,4095
1.1474127030014643,2206,4095,3660
1.1501201249993755,2607,4095,4095
1.1528227130002051,2028,3747,3143
1.1555186770019645,2743,4095,4095
1.1582109330011008,2343,4095,4095
1.160901355000533,2459,4095,3621
1.1635892349986534,2441,4095,3183
1.1662793239993334,2320,4019,3754
1.1689735379986814,2677,4095,4095
1.1716677520016674,2032,4095,3630
1.174360840999725,2288,4095,4095
1.1770503879997705,2291,896,2688
1.1797397260015714,3097,4095,4095
1.182430814998952,2513,3006,3194
1.1851199459997588,3218,4095,4095
1.1878099089990428,2544,4095,4095
1.1905013319992577,2590,4095,4095
1.1931922120020317,2112,3661,3228
1.1958820510008081,2891,4095,4095
1.1985717649986327,2915,4095,4095
1.2012613949991646,3195,4095,4095
1.2039517759985756,2538,3023,3071
1.2066421980016457,2381,293,2479
1.2093275359984546,2817,4095,4095
1.21201800000199,2153,4095,3550
1.2147079220012529,2842,4095,4095
1.2173970939984429,2409,2651,3156
1.2200909329985734,3221,4095,4095
1.2227854800003115,2559,2816,3173
1.2254759030001878,3258,4095,4095
1.2281653249992814,2769,4095,4095
1.230851705000532,2461,4095,4095
1.2335386269987794,2629,4095,4095
1.2362274240003899,2903,4095,4095
1.238923970999167,3047,4095,4095
1.2416112270002486,3199,4095,4095
1.2442999410013726,2439,4095,4095
1.2469881959987106,2256,2322,3094
1.2496917850003229,2650,4095,4095
1.2524249570014945,2030,4095,3428
1.2551171289997,2710,4095,4095
1.257833051000489,2317,4095,3617
1.260523140001169,2442,2715,2948
1.2632120210000721,2439,3962,3436
1.2659009009985311,2930,4095,4095
1.2685971149985562,2683,4095,4095
1.2712911199996597,2003,4095,3917
1.2739837510016514,2039,3104,3327
1.2766715899997507,2212,832,2503
1.2793614699985483,2960,4095,4095
1.2820508090007934,2604,4095,4095
1.2847421890000987,3043,4095,4095
1.2874337370012654,2173,4095,3984
1.2901257420016918,2559,4095,4095
1.2928135809997912,1991,3714,3205
1.2955043779984408,2688,4095,4095
1.298193425001955,2352,4095,4095
1.3008805550016405,2415,4095,3863
1.3035716859994864,2391,3997,3215
1.306260815999849,2240,3248,3055
1.308948447000148,2624,4095,4095
1.3116375360004895,1973,4095,3682
1.3143256240000483,2414,4095,4095
1.3170162970018282,2205,1047,2736
1.319710343999759,2874,4095,4095
1.322402265999699,2385,2739,3152
1.3250901880019228,2930,4095,4095
1.3277805680008896,2490,4095,4095
1.330468699001358,2543,4095,4095
1.3331565379994572,2128,3767,3347
1.3358454600020195,3031,4095,4095
1.3385348820011131,3120,4095,4095
1.3412228870001854,3664,4095,4095
1.3439113089989405,3185,3035,3165
1.3465998149986262,3277,256,2494
1.3492873620016326,4095,4095,4095
1.3519914919997973,3696,4095,3583
1.354696373000479,4095,4095,4095
1.3573900029987271,4095,2789,3198
1.3600804669986246,4095,4095,4095
1.3627701389996218,4095,2817,3196
1.3654576859989902,4095,4095,4095
1.3681526920008764,3936,4095,4095
1.3708463639995898,2734,4095,4095
1.3735350780007138,2242,4095,4095
1.37622595799985,2022,4095,4095
1.3789159219995781,1939,4095,4095
1.3816031360001944,1969,4095,4095
1.3842907660000492,1678,4095,4095
1.3869811879994813,1319,2602,3158
1.389671819000796,1727,4095,4095
1.392361908001476,1205,4095,3419
1.3950534969990258,1920,4095,4095
1.3977701690018876,1681,4095,3626
1.4004598409992468,1923,2845,3487
1.4031496800016612,2032,3301,3457
1.4058384769996337,2544,4095,4095
1.4085254820020054,2432,4095,4095
1.4112193629989633,1874,4095,4095
1.413908785001695,1962,2953,3270
1.4165987900014443,2160,1069,2519
1.4192920040004537,2870,4095,4095
1.421982593001303,2486,4095,4095
1.4246705980003753,2992,4095,4095
1.4273591450000822,2149,4095,3843
1.430049025999324,2559,4095,4095
1.4327364480013784,1997,3825,3242
1.4354251200020371,2707,4095,4095
1.4381135420007922,2338,4095,4095
1.4408059640009014,2442,4095,3751
1.443499345001328,2430,4095,3251
1.4461918090019026,2272,3581,3578
1.4489174390000699,2660,4095,4095
1.4516307359990606,2004,4095,3700
1.4543327419996785,2510,4095,4095
1.457022746999428,2273,1406,2817
1.4597121689985215,3104,4095,4095
1.4623998409988417,2489,2598,3161
1.4650880139997753,3154,4095,4095
1.4677763520012377,2615,4095,4095
1.4704712739985553,2544,4095,4095
1.473161779998918,2089,4095,4095
1.4758529099999578,2862,4095,4095
1.4785429580006166,2977,4095,4095
1.4812325460006832,3343,4095,4095
1.483923968000454,2507,3557,3203
1.4866136410018953,2347,538,2621
1.4893023959994025,2768,4095,4095
1.491993026000273,2120,4095,3619
1.494682199001545,2833,4095,4095
1.497369995999179,2420,3038,3273
1.5000589590017626,3426,4095,4095
1.5027478400006657,2624,2843,3102
1.5054358870002034,3345,4095,4095
1.508125767999445,2895,4095,4095
1.5108151899985387,2544,4095,4095
1.5135197780000453,2693,4095,4095
1.5162164920002397,2978,4095,4095
1.5189111229992704,3195,4095,4095
1.521602212000289,3337,4095,4095
1.5242908420004824,3231,4095,4095
1.5269820559988148,2438,2896,3237
1.5296687279987964,2912,4095,4095
1.5323586500016972,2234,4095,3408
1.535049779999099,3027,4095,4095
1.5377659939986188,2543,4095,3778
1.5404589579993626,2685,2471,2992
1.5431487550013117,2682,4095,3451
1.5458388440019917,3373,4095,4095
1.5485265579991392,2994,4095,4095
1.5512337719992502,2267,4095,4095
1.5539366100019834,2266,3371,3355
1.5566268239999772,2433,469,2448
1.5593143709993456,3265,4095,4095
1.562002085000131,2654,4095,4095
1.5646892160002608,3396,4095,4095
1.5673773039998196,2349,4095,4095
1.5700727680014097,2773,4095,4095
1.5727633150017937,2137,3923,3260
1.5754540289999568,2890,4095,4095
1.5781447010012926,2618,4095,4095
1.5808332480009994,2544,4095,4095
1.5835229200019967,2511,3280,3039
1.5862098430006881,2336,2375,2791
1.5888978479997604,2722,4095,4095
1.5915867280018574,2041,4095,3674
1.5942744839994702,2619,4095,4095
1.5969620309988386,2281,1409,2843
1.5996507029994973,3105,4095,4095
1.6023408340006426,2475,2933,3205
1.6050356720006675,3034,4095,4095
1.6077235949996975,2550,4095,4095
1.6104168919991935,2467,4095,4095
1.613106021999556,1985,4095,4095
1.6157971110005747,2704,4095,4095
1.6184886160008318,2741,4095,4095
1.6211785390005389,3133,4095,4095
1.6238679189991672,2350,4087,3311
1.6265558830018563,2160,639,2638
1.6292430130015418,2522,4095,4095
1.6319312269988586,1872,4095,3731
1.634618481999496,2525,4095,4095
1.6373048630011908,2153,3153,3280
1.639994368000771,2928,4095,4095
1.6426826649985742,2304,2559,3159
1.6453701710015594,2749,4095,4095
1.6480606350014568,2463,4095,4095
1.6507734740007436,2191,4095,4095
1.6534951040011947,2304,4095,4095
1.6561919849991682,2321,4095,4093
1.658887115001562,2675,4095,4095
1.661583911998605,2789,4095,4095
1.6642812930003856,2800,4095,4095
1.66697742299948,2019,3355,3362
1.6696717199993145,2398,4095,4095
1.6723753510013921,1817,4095,3495
1.6750696890012478,2475,4095,4095
1.6777912370016566,2122,4095,3840
1.680486616998678,2256,2512,3179
1.6831842889987456,2249,4095,3539
1.6858786699995107,2671,4095,4095
1.688572175000445,2453,4095,4095
1.691267014000914,1884,4095,4095
1.6939637280011084,1865,4095,3767
1.696655150000879,2047,263,2471
1.6993518640010734,2718,4095,4095
1.7020476610014157,2273,3738,3311
1.704744540998945,2757,4095,4095
1.707443963001424,2057,4095,4095
1.710138802001893,2352,4095,4095
1.7128313909997814,1804,3919,3287
1.715525855001033,2486,4095,4095
1.7182221520015446,2480,4095,4095
1.7209146569985023,2518,4095,4095
1.723614496000664,2227,2683,3026
1.726312501999928,2059,699,2465
1.7290047989990853,2419,4095,4095
1.7317053459992167,1799,4095,3750
1.7344017270006589,2416,4095,4095
1.7370962320019316,2064,2342,3125
1.7397930289989745,2719,4095,4095
1.7424906179985555,2246,2559,3137
1.7451838730012241,2688,4095,4095
1.747879878999811,2388,4095,4095
1.750576259000809,2198,4095,4095
1.7532728059995861,2259,4095,4095
1.7559683949984901,2487,4095,4095
1.758660151001095,2559,4095,4095
1.7613534060001257,2751,4095,4095
1.7640457870002137,2154,4095,4095
1.766738375001296,1963,2252,3053
1.7694313389984018,2323,4095,4095
1.7721248859998013,1723,4095,3570
1.7748211830003129,2368,4095,4095
1.7775131470007182,2018,4095,3582
1.7802121109998552,2592,4095,3705
1.7829094080007053,2187,3430,3381
1.7856016639998415,2581,4095,4095
1.7882978359994013,2371,4095,4095
1.7909945079991303,1933,4095,4095
1.7936878049986262,1778,2618,3177
1.7964256439991004,1968,1506,2630
1.7991256489985972,2645,4095,4095
1.8018232380018162,2526,4095,4095
1.8045160770016082,2730,4095,4095
1.8072122080011468,1952,4095,4095
1.8099071299984644,2334,4095,4095
1.8125969680004346,1774,3849,3223
1.815289849000692,2461,4095,4095
1.8179837290008436,2236,4095,4095
1.8206839019985637,2253,4095,4095
1.823381073998462,2238,3215,3117
1.8260739959987404,2082,2766,2869
1.8287666680007533,2447,4095,4095
1.831461923000461,1814,4095,3753
1.8341592620017764,2322,4095,4095
1.8368540590017801,2074,1381,2798
1.8395498559984844,2738,4095,4095
1.8422451949991228,2271,2949,3152
1.844936075998703,2729,4095,4095
1.8476312900020275,2334,4095,4095
1.8503262529993663,2224,4095,4095
1.8530197590007447,1770,4095,4095
1.8557140980010445,2451,4095,4095
1.8584057699990808,2473,4095,4095
1.8610964420004166,2740,4095,4095
1.8637894470011815,2112,4095,3265
1.8664851610010373,1913,787,2676
1.8691766670017387,2256,4095,4095
1.8718728390012984,1648,4095,3677
1.874568219001958,2270,4095,4095
1.877261391000502,1927,3275,3344
1.8799573549986235,2653,4095,4095
1.8826524860014615,2103,2976,3130
1.8853441159990325,2507,4095,4095
1.8880377880013839,2256,4095,4095
1.890734002001409,1957,4095,4095
1.8934202570017078,1904,4095,3905
1.8961130130010133,1888,4095,3906
1.8988121430011233,2454,4095,4095
1.9015067319996888,2549,4095,4095
1.9042024459995446,2559,4095,4095
1.9068965760016,1822,3358,3362
1.9095890399985365,2183,4095,4095
1.9122820459997456,1616,4095,3500
1.9149768839997705,2267,4095,4095
1.9176695979986107,1934,4095,4095
1.9203728540014708,2066,2512,3210
1.9230656510007975,2066,4095,3709
1.9257864899991546,2448,4095,4095
1.9284823699999833,2251,4095,4095
1.9311807509984646,1635,4095,4095
1.9338757559999067,1664,4095,4095
1.936568803001137,1840,256,2491
1.9392637249984546,2465,4095,4095
1.9419566479991772,2059,3424,3279
1.9446476949997304,2507,4095,4095
1.94734307500039,1941,4095,4095
1.9500374970011762,2227,4095,4095
1.952729378001095,1767,3885,3230
1.9554210499991314,2544,4095,4095
1.9581128889985848,2675,4095,4095
1.9608014770019508,2973,4095,4095
1.9634971910018066,2811,2692,3082
1.9661914880016411,2894,1050,2506
1.9688842850009678,3857,4095,4095
1.9715770410002733,3182,4095,3741
1.9742679629998747,4095,4095,4095
1.9769595100005972,4095,2186,3049
1.9796555989996705,4095,4095,4095
1.9823501460014086,4095,2859,3213
1.9850411100014753,4095,4095,4095
1.9877365319989622,3515,4095,4095
1.9904302879986062,2510,4095,4095
1.9931232509989059,1911,4095,4095
1.9958192150006653,1840,4095,4095
1.9985107210013666,1686,4095,4095
2.001201058999868,1757,4095,4095
2.003944190000766,1150,4095,4095
2.0066761119996954,960,1853,2963
2.009369950999826,1338,4095,4095
2.0120660809989204,782,4095,3547
2.014762504000828,1494,4095,4095
2.017456009001762,1264,4095,3648
2.0201498060014274,1525,3041,3549
2.022845978000987,1662,3127,3319
2.0255401089998486,2153,4095,4095
2.0282356979987526,2064,4095,4095
2.0309295779989043,1681,4095,4095
2.0336204999985057,1613,2832,3209
2.0363163389993133,1834,1290,2559
2.039011428001686,2509,4095,4095
2.0417035999998916,2441,4095,4095
2.044424021998566,2585,4095,4095
2.0471201940017636,1833,4095,4095
2.04983649100177,2221,4095,4095
2.0525307880016044,1675,4055,3362
2.0552773359995626,2356,4095,4095
2.058020424999995,2126,4095,4095
2.0607188050016703,2179,4095,4095
2.063411019000341,2151,2686,3008
2.066099274001317,1977,1446,2591
2.068785529998422,2337,4095,4095
2.0726921210007276,1725,4095,3779
2.0754035850004584,2339,4095,4095
2.0780966320016887,2398,4095,4095
2.080786137001269,2535,4095,4095
2.0834757260017795,2182,2647,3015
2.0861648569989484,2007,753,2478
2.088855070000136,2371,4095,4095
2.0915470340005413,1762,4095,3737
2.0942366650015174,2385,4095,4095
2.0969250870002725,2043,2157,3053
2.099612050998985,2738,4095,4095
2.1023132640002586,2261,2828,3204
2.1050095620012144,2714,4095,4095
2.107699609001429,2421,4095,4095
2.110389114001009,2255,4095,4095
2.113076577999891,2268,4095,4095
2.1157662500008882,2559,4095,4095
2.1184560889996646,2685,4095,4095
2.121149594000599,2992,4095,4095
2.1238450999990164,2286,4095,4095
2.1265341469988925,2111,1835,2951
2.1292213609995088,2481,4095,4095
2.1319103659989196,1891,4095,3689
2.1345979969992186,2558,4095,4095
2.137284168999031,2219,4019,3471
2.1399720490007894,3094,4095,4095
2.1426609299996926,2397,2947,3151
2.145347559999209,2885,4095,4095
2.1480357740001637,2634,4095,4095
2.1507224460001453,2320,4095,4095
2.1534255760016094,1984,2989,3155
2.156130290000874,2160,2790,2962
2.158837004000816,2918,4095,4095
2.161531718000333,3009,4095,4095
2.1642232650010556,3033,4095,4095
2.1669133120012702,2160,4095,3634
2.1696054429994547,2541,4095,4095
2.172298031000537,1944,4095,3456
2.1749889950006036,2625,4095,4095
2.1776775420003105,2247,4095,4095
2.180369672998495,2370,3392,3408
2.1830627620001906,2355,4095,3681
2.185791017000156,2768,4095,4095
2.1884844390006037,2514,4095,4095
2.1911769030011783,1866,4095,4095
2.193867242000124,1906,4095,4095
2.1965550810018613,2083,461,2593
2.1992441280017374,2755,4095,4095
2.201932341999054,2288,3263,3181
2.204619347001426,2735,4095,4095
2.2073075190019154,2301,4095,4095
2.209995690998767,2320,4095,4095
2.2126816130003135,1785,4055,3280
2.215370369001903,2476,4095,4095
2.2180810829995607,2489,4095,4095
2.2207919630018296,2670,4095,4095
2.2234918440008187,2179,2811,3095
2.226189057000738,1991,225,2497
2.2288825629984785,2339,4095,4095
2.231577942999138,1723,4095,3696
2.2342741149986978,2332,4095,4095
2.2369668710016413,1984,2662,3136
2.239661501000228,2625,4095,4095
2.2423552149994066,2153,2517,3131
2.2450472620002984,2555,4095,4095
2.247742684001423,2288,4095,4095
2.2504415650000738,2041,4095,4095
2.2531374040008814,2151,4095,4095
2.255845951000083,2357,4095,4095
2.2585389980013133,2448,4095,4095
2.261224128000322,2550,4095,4095
2.2639170510010445,2302,4095,4095
2.266610763999779,1809,2603,3175
2.26930114499919,2160,4095,4095
2.2719949839993205,1563,4095,3517
2.2746863220017985,2206,4095,4095
2.277378161001252,1872,4095,3626
2.280069332999119,2015,2688,3085
2.2827630050014704,2017,3666,3429
2.285456678000628,2401,4095,4095
2.28815134999968,2202,4095,4095
2.2908466890003183,1752,4095,4095
2.2935389859994757,1609,2896,3294
2.2962333239993313,1787,944,2523
2.29892762199961,2426,4095,4095
2.301617709999846,2346,4095,4095
2.3043118829991727,2508,4095,4095
2.3070065130013973,1766,4095,4095
2.309699184999772,2143,4095,4095
2.3124281490017893,1585,4095,3383
2.315126613000757,2255,4095,4095
2.3178218270004436,2107,4095,4095
2.3205132900002354,2059,4095,4095
2.323207754001487,2032,3035,3002
2.3259021759986354,1859,2402,2789
2.3286046819994226,2202,4095,4095
2.331301395999617,1584,4095,3825
2.333996276000107,2192,4095,4095
2.336688947998482,1853,1648,2865
2.3393844540005375,2503,4095,4095
2.3420768760006467,2077,2971,3196
2.344771422998747,2496,4095,4095
2.3474665120011196,2183,4095,4095
2.350161100999685,2058,4095,4095
2.352852731000894,1595,4095,4095
2.3555476530018495,2282,4095,4095
2.3582410749986593,2357,4095,4095
2.360931746999995,2593,4095,4095
2.3636228360010136,1994,4095,3276
2.366313132999494,1809,1168,2791
2.369003513998905,2157,4095,4095
2.371693728000537,1562,4095,3683
2.3743892749989755,2193,4095,4095
2.3770827379994444,1872,3455,3346
2.379781326999364,2598,4095,4095
2.3824783740019484,2075,2975,3217
2.3851684219989693,2481,4095,4095
2.387862469000538,2263,4095,4095
2.390554432000499,1968,4095,4095
2.3932462299999315,1664,3530,3337
2.395941442999174,1844,3627,3153
2.398637032001716,2506,4095,4095
2.401328496001952,2557,4095,4095
2.4040246260010463,2622,4095,4095
2.4067183820006903,1877,3762,3469
2.4094140119996155,2256,4095,4095
2.412110476001544,1690,4095,3493
2.4148064399996656,2353,4095,4095
2.4174992789994576,2018,4095,4095
2.4201924510016397,2160,2947,3296
2.42288812300103,2159,4095,3713
2.4255808790003357,2541,4095,4095
2.4282776760010165,2326,4095,4095
2.430971847999899,1787,4095,4095
2.433665270000347,1725,4095,4095
2.4363583589984046,1898,219,2483
2.4390541140019195,2538,4095,4095
2.4417841610011237,2112,3397,3255
2.4444792920003238,2533,4095,4095
2.4471724219984026,2038,4095,4095
2.4498884690001432,2123,4095,4095
2.452617016999284,1563,4095,3321
2.4553816890002054,2221,4095,4095
2.458193944999948,2247,4095,4095
2.4609208250003576,2500,4095,4095
2.4636111639993032,1929,4095,3501
2.4663095860014437,1739,1324,2804
2.468998925000051,2092,4095,4095
2.4716930969989335,1488,4095,3767
2.4743861030001426,2125,4095,4095
2.4770773999989615,1791,3611,3431
2.47977032199924,2487,4095,4095
2.4824678690019937,1965,2686,3207
2.4851582080009393,2355,4095,4095
2.4878487960013445,2153,4095,4095
2.49054234399955,1810,4095,4095
2.493232848999469,1521,3279,3131
2.4959227299987106,1706,3293,3101
2.4986117769985867,2340,4095,4095
2.501301031999901,2405,4095,4095
2.5039894959991216,2438,4095,4095
2.506680293001409,1702,3635,3424
2.50936713199917,2064,4095,4095
2.512055429000611,1487,4095,3462
2.514744601001439,2141,4095,4095
2.5174312730014208,1813,4095,4095
2.520125361999817,1949,2657,3245
2.5228193670009205,1943,4095,3794
2.525509373001114,2304,4095,4095
2.528198252999573,2091,4095,4095
2.530885716998455,1634,4095,4095
2.5335730139995576,1535,4095,3696
2.5362684360006824,1776,238,2445
2.538958942001045,2491,4095,4095
2.541646072000731,2155,3927,3328
2.544352411001455,2749,4095,4095
2.5470422920006968,2192,4095,4095
2.5497303390002344,2813,4095,4095
2.552460427999904,2439,4095,3376
2.555166933001601,3700,4095,4095
2.557869230000506,4072,4095,4095
2.560562527000002,4095,4095,4095
2.5632539489997725,4095,2762,3125
2.5659428299986757,4095,864,2499
2.5686310439996305,4095,4095,4095
2.571321674000501,3315,4095,3744
2.5740120129994466,3663,4095,4095
2.5766997680002532,2448,2190,3009
2.579389982001885,2605,4095,4095
2.582078071001888,1788,2677,3163
2.5847683680003684,1902,4095,4095
2.5874575820016616,1435,4095,4095
2.590146836999338,1131,4095,4095
2.5928348429988546,863,4095,4095
2.5955243479984347,1324,4095,4095
2.5982158119986707,1420,4095,4095
2.6009033170012117,1692,4095,4095
2.6035921149996284,1155,4095,4095
2.6062814950018947,1045,1600,2887
2.608967333999317,1489,4095,4095
2.611656048000441,985,4095,3712
2.6143448859984346,1733,4095,4095
2.617033767000976,1520,3809,3431
2.6197242310008733,2322,4095,4095
2.622419818999333,1907,3007,3178
2.6251120749984693,2368,4095,4095
2.6278013299997838,2208,4095,4095
2.630499252998561,1904,4095,4095
2.6331877160009753,1616,3039,3158
2.6358761379997304,1794,3134,3050
2.6385651439995854,2467,4095,4095
2.6412518990000535,2534,4095,4095
2.6439415300010296,2587,4095,4095
2.646630784998706,1849,3856,3509
2.649320373999217,2219,4095,4095
2.652012046000891,1648,4095,3472
2.654752718000964,2307,4095,4095
2.657444224001665,1985,4095,4095
2.6601377289989614,2132,3196,3347
2.6628256930016505,2144,4095,3606
2.665513282001484,2538,4095,4095
2.6681999120010005,2346,4095,4095
2.670889001001342,1736,4095,4095
2.6735771320018102,1776,4095,4095
2.676265344998683,1973,282,2496
2.678954516999511,2654,4095,4095
2.68164293999871,2233,3333,3220
2.6843326529997285,2715,4095,4095
2.687022074998822,2046,4095,4095
2.6897095810018072,2342,4095,4095
2.692439377999108,1795,4095,3309
2.695129758998519,2491,4095,4095
2.6978198469987547,2455,4095,4095
2.7005077700014226,2558,4095,4095
2.7031975669997337,2257,2885,3028
2.707772492998629,2096,929,2480
2.710468414999923,2177,4095,4095
2.7131599620006455,1884,3026,3103
2.715851675999147,2066,3024,2996
2.718541431000631,2747,4095,4095
2.721234478001861,2882,4095,4095
2.7239288589989883,2930,4095,4095
2.726618322001741,2109,3963,3518
2.729308869998931,2497,4095,4095
2.7320006670015573,1909,4095,3488
2.7346906720013067,2598,4095,4095
2.7373798029984755,2245,4095,4095
2.7400700580001285,2382,2899,3293
2.742758979999053,2384,4095,3695
2.745444944001065,2833,4095,4095
2.748136866001005,2590,4095,4095
2.75082883000141,2018,4095,4095
2.753516960001434,1971,4095,4095
2.7562046320017544,2154,245,2480
2.7588930960009748,2875,4095,4095
2.761582017999899,2377,3830,3237
2.764271149000706,2883,4095,4095
2.7669593630016607,2135,4095,4095
2.769645368000056,2429,4095,4095
2.7723354990012012,1855,4095,3384
2.7750259620006545,2529,4095,4095
2.777716717999283,2509,4095,4095
2.7804463069987833,2288,4095,4095
2.783137562000775,2253,2833,2986
2.785828775999107,2075,1007,2499
2.7885169479995966,2421,4095,4095
2.7912062870018417,1789,4095,3776
2.7938948340015486,2395,4095,4095
2.796581923001213,2042,2002,3019
2.7992711369988683,2718,4095,4095
2.8019623090003734,2245,2841,3136
2.804650481000863,2698,4095,4095
2.807338153001183,2355,4095,4095
2.810028907999367,2190,4095,4095
2.812716664000618,1905,4095,4095
2.8154050029988866,2463,4095,4095
2.8180938410005183,2538,4095,4095
2.82078555499902,2759,4095,4095
2.8234778939986427,2149,4095,3974
2.8261673990018608,1958,1345,2842
2.8288546549993043,2308,4095,4095
2.831544369000767,1695,4095,3687
2.834231290999014,2320,4095,4095
2.836918755001534,1973,3773,3410
2.8396066349996545,2695,4095,4095
2.8422962240001652,2128,2853,3183
2.84498443800112,2519,4095,4095
2.8476727349989233,2285,4095,4095
2.850360657001147,1970,4095,4095
2.853047661999881,1641,3371,3137
2.8557363340005395,1799,3562,3158
2.858423882000352,2433,4095,4095
2.861111803998938,2511,4095,4095
2.8638015590004215,2545,4095,4095
2.866489273001207,1805,3406,3358
2.869177237000258,2175,4095,4095
2.8718694919989503,1600,4095,3506
2.874560455999017,2249,4095,4095
2.8772495449993585,1922,4095,3857
2.8799383000005037,2074,2416,3184
2.882627847000549,2066,4095,3649
2.8853144780005096,2445,4095,4095
2.8880021500008297,2237,4095,4095
2.8906911550002405,1775,4095,4095
2.8933796609999263,1643,3729,3566
2.896069708000141,1826,400,2441
2.8987577549996786,2496,4095,4095
2.90144442699966,2095,4095,3357
2.904134348998923,2546,4095,4095
2.906826687998546,1810,4095,4095
2.909513942999183,2183,4095,4095
2.912202616000286,1614,4095,3386
2.9148955380005646,2288,4095,4095
2.917582501999277,2187,4095,4095
2.9202706319993013,2096,4095,4095
2.92296388700197,2073,3259,3025
2.9256541850008944,1902,2174,2766
2.9283431069998187,2239,4095,4095
2.931032069998764,1612,4095,3664
2.9337182429990207,2212,4095,4095
2.9364402479986893,1871,1438,2807
2.939132128998608,2526,4095,4095
2.941822967000917,2106,2843,3207
2.9445128480001586,2522,4095,4095
2.9472036869992735,2196,4095,4095
2.9498969839987694,2095,4095,4095
2.9525878230015223,1617,4095,4095
2.9552772030001506,2309,4095,4095
2.9579675829991174,2405,4095,4095
2.9606548810006643,2641,4095,4095
2.9633459280012175,2075,4095,3295
2.9660334330001206,1890,887,2709
2.968722689001879,2240,4095,4095
2.9714154440007405,1643,4095,3761
2.974107449001167,2272,4095,4095
2.976803954999923,1946,3247,3328
2.979494169001555,2698,4095,4095
2.9821838829993794,2162,2897,3153
2.984870846001286,2586,4095,4095
2.9875587679998716,2352,4095,4095
2.9902478990006784,2079,4095,4095
2.9929346130011254,2032,4095,3871
2.9956230759999016,2164,4095,4075
2.9983112490008352,2599,4095,4095
3.00100071199995,2711,4095,4095
3.003691718000482,2717,4095,4095
3.006437472999096,1957,3223,3347
3.00915343700035,2318,4095,4095
3.0118444840009033,1718,4095,3511
3.014533448000293,2366,4095,4095
3.017219870002009,2025,4095,4095
3.019908917001885,2164,2612,3219
3.0226013399988005,2159,4095,3806
3.0252906780006015,2538,4095,4095
3.0279798920018948,2305,4095,4095
3.0306667309996556,1759,4095,4095
3.0333554450007796,1664,4095,3843
3.0360447419989214,1822,254,2448
3.0387334970000666,2457,4095,4095
3.041420711000683,2030,3952,3286
3.044109466001828,2454,4095,4095
3.046796679998806,1730,4095,4095
3.0494829359995492,2091,4095,4095
3.0521699000019,1535,4095,3423
3.0548586129989417,2201,4095,4095
3.057545409999875,2130,4095,4095
3.0602354160000687,1986,4095,4095
3.0629359209997347,1967,3027,3071
3.0656620939989807,1799,1935,2679
3.0683628490005503,2135,4095,4095
3.0710697710019303,1516,4095,3774
3.073793442999886,2115,4095,4095
3.076485364999826,1783,1872,2958
3.079172121000738,2429,4095,4095
3.0818615009993664,1999,2951,3166
3.084548465001717,2415,4095,4095
3.0872376789993723,2129,4095,4095
3.089928351000708,1971,4095,4095
3.0926151070016203,1878,4095,4095
3.0953032370016444,2231,4095,4095
3.0979947010018805,2317,4095,4095
3.1006843309987744,2538,4095,4095
3.1033740029997716,1953,4095,4095
3.1060605919992668,1766,1589,2874
3.1087472229992272,2110,4095,4095
3.111437603001832,1488,4095,3683
3.114126899999974,2112,4095,4095
3.1168134059989825,1803,3865,3438
3.1195028690017352,2544,4095,4095
3.122192167000321,2077,3138,3190
3.124880129998928,2543,4095,4095
3.127569301999756,2427,4095,4095
3.1302630999998655,2255,4095,4095
3.1329516879995936,2132,3694,3124
3.135641693999787,2541,3207,3099
3.1383301989990287,3710,4095,4095
3.1410170380004274,4095,4095,4095
3.143704918998992,4095,4095,4095
3.1463926739997987,3779,3696,3457
3.1490804290006054,4095,4095,4095
3.1517688099993393,3918,4095,3514
3.1544552740015206,4095,4095,4095
3.1571433620010794,3613,4095,4095
3.1598316179988615,3102,2559,3205
3.1625217479995626,2478,4095,3654
3.1652120869985083,2336,4095,4095
3.1679013009998016,1753,4095,4095
3.1705880560002697,1010,4095,4095
3.1732761029998073,705,4095,3652
3.1759619420008676,807,381,2432
3.178651197998988,1452,4095,4095
3.1813371620010003,1091,4095,3358
3.1840274589994806,1571,4095,4095
3.1867153810017044,923,4095,4095
3.1894016779988306,1339,4095,4095
3.1920907249987067,865,4095,3414
3.194781354999577,1646,4095,4095
3.197468777998438,1693,4095,4095
3.200158283001656,1742,4095,4095
3.2028467470008763,1809,3019,3069
3.2055336689991236,1735,2154,2735
3.2082203829995706,2150,4095,4095
3.21090855500006,1579,4095,3786
3.213594643999386,2192,4095,4095
3.2162831070018,1873,1461,2854
3.2189706550016126,2531,4095,4095
3.221655617999204,2122,2935,3150
3.224345998998615,2559,4095,4095
3.2270372130005853,2234,4095,4095
3.229726967998431,2157,4095,4095
3.2324548899996444,1680,4095,4095
3.2351441040009377,2383,4095,4095
3.237834817999101,2467,4095,4095
3.240522947999125,2736,4095,4095
3.2432106619999104,2166,3982,3346
3.2458987509999133,1985,786,2688
3.248585923000064,2342,4095,4095
3.2512731780007016,1740,4095,3794
3.253962099999626,2368,4095,4095
3.2571467740017397,2038,3217,3282
3.259884320999845,2810,4095,4095
3.262614160001249,2238,4095,3811
3.265341915001045,2647,4095,4095
3.2680695460003335,2440,4095,4095
3.2707997180004895,1808,4095,4095
3.273525474000053,2038,4095,4095
3.2762519370007794,2077,1019,2756
3.2789781100000255,2777,4095,4095
3.281702072999906,2318,2825,3161
3.2844709960008913,2807,4095,4095
3.2872005429999263,2480,4095,4095
3.289930506998644,2315,4095,4095
3.292658220998419,2384,4095,4095
3.29538581000088,2643,4095,4095
3.2981139399998938,2793,4095,4095
3.3008388210000703,3071,4095,4095
3.3035654929990415,2795,4095,4095
3.3062909569998737,2159,3124,3312
3.30901629499931,2538,4095,4095
3.311743884001771,1947,4095,3542
3.314470015000552,2644,4095,4095
3.317195103998529,2282,4095,4095
3.3199232340011804,2431,3184,3376
3.322653489998629,2426,4095,3403
3.325381328999356,2667,4095,4095
3.3281098760016903,2630,4095,4095
3.3308383809999214,1998,4095,4095
3.333563136999146,2479,4095,4095
3.336291642001015,2209,1392,2844
3.339019315000769,3010,4095,4095
3.3417774449990247,2423,2928,3184
3.3445069510016765,2938,4095,4095
3.3472372479991463,2559,4095,4095
3.349963086999196,2351,4095,4095
3.3526903839992883,2446,4095,4095
3.355419139999867,2646,4095,4095
3.358144687001186,2767,4095,4095
3.360868734001997,2880,4095,4095
3.363596281000355,2874,4095,4095
3.3663520779991813,2061,3560,3422
3.3690776670009654,2411,4095,4095
3.3718036729987944,1819,4095,3518
3.3745283450007264,2483,4095,4095
3.3772508510010084,2154,4095,4095
3.3799748980018194,2277,4095,3659
3.3827014449998387,2261,4095,4095
3.385427367000375,2096,3438,3115
3.388156623001123,2439,4095,4095
3.3908831699991424,1797,4095,3830
3.393607925001561,2402,4095,4095
3.396334556000511,2054,1791,2941
3.3990612699999474,2730,4095,4095
3.401828566999029,2254,2778,3190
3.4045589480010676,2689,4095,4095
3.4072895370009064,2396,4095,4095
3.4100178750013583,2147,4095,4095
3.4127415059992927,2220,4095,4095
3.4154693450000195,2295,4095,4095
3.418198184001085,2554,4095,4095
3.420926230999612,2639,4095,4095
3.423654736001481,2660,4095,4095
3.426382116998866,1872,4095,3569
3.429106455998408,2220,4095,4095
3.431834170001821,1639,4095,3502
3.434562258000369,2290,4095,4095
3.4372871390005457,1978,4095,4095
3.440040394998505,2096,4095,4095
3.4427821089993813,2077,3606,3052
3.445508531000087,1897,2053,2721
3.4482364110008348,2233,4095,4095
3.450968458000716,1603,4095,3824
3.453694171999814,2214,4095,4095
3.4564605109990225,1881,2358,3111
3.4591701829995145,2557,4095,4095
3.4618606889998773,2095,2594,3153
3.4645498610007053,2509,4095,4095
3.4672405749988684,2272,4095,4095
3.4699296219987446,2032,4095,4095
3.4726166690015816,2141,4095,4095
3.4753067579986237,2330,4095,4095
3.477994429998944,2475,4095,4095
3.4806820189987775,2594,4095,4095
3.4833713160005573,2265,4095,4095
3.4860608630006027,1877,2635,3173
3.488747660001536,2234,4095,4095
3.4914364569995087,1637,4095,3632
3.494125837998581,2278,4095,4095
3.496812843000953,1949,4095,3631
3.499501723999856,2167,3263,3513
3.502190728999267,2119,3286,3337
3.5048771090005175,2513,4095,4095
3.5075649069985957,2305,4095,4095
3.5102528700008406,1950,4095,4095
3.5129418340002303,1684,2737,3235
3.5156315060012275,1869,1600,2651
3.5183205120010825,2545,4095,4095
3.5210081420009374,2480,4095,4095
3.5236953560015536,2621,4095,4095
3.5264204449995304,1857,4095,3856
3.529138784000679,2217,4095,4095
3.5318321640006616,1637,4095,3482
3.5345197530004953,2303,4095,4095
3.537205674998404,2143,4095,4095
3.539893346998724,2128,4095,3747
3.5425878109999758,2130,3507,3150
3.5452779830011423,1982,3583,3097
3.5479714469984174,2332,4095,4095
3.55066116099988,1767,4095,4095
3.5533502489997772,2144,4095,4095
3.5560403800009226,1954,976,2730
3.558729802000016,2659,4095,4095
3.5614179320000403,2212,2709,3157
3.5641092299993034,2672,4095,4095
3.5667981100014003,2304,4095,4095
3.5694877409987384,2283,4095,4095
3.572184078999271,1763,4095,3637
3.5748700850017485,2463,4095,4095
3.577558424000017,2516,4095,4095
3.580246970999724,2785,4095,4095
3.5829328510008054,2193,3263,3186
3.585618772998714,2019,272,2503
3.5883072789984,2361,4095,4095
3.59099528400111,1738,4095,3903
3.593683790000796,2352,4095,4095
3.5964120870012266,2011,2682,3167
3.599109717000829,2717,4095,4095
3.601825973000814,2194,2527,3147
3.604515937000542,2601,4095,4095
3.6072071919988957,2320,4095,4095
3.609898531001818,2080,4095,4095
3.612587744999473,2079,4095,4095
3.6152762080018874,2237,4095,4095
3.6179644639996695,2409,4095,4095
3.620651386001555,2482,4095,4095
3.623339391000627,2358,4095,4095
3.6260283139999956,1760,2779,3197
3.628715735998412,2113,4095,4095
3.6314039079989016,1519,4095,3606
3.634091662999708,2160,4095,4095
3.636778209998738,1826,4095,3699
3.6394655910007714,1977,2633,3005
3.642155304998596,1985,3399,3293
3.6448433930017927,2374,4095,4095
3.647533232000569,2173,4095,4095
3.6502224879986898,1822,4095,4095
3.6529089930008922,1573,2938,3312
3.655598248999013,1751,1328,2607
3.6583315460011363,2433,4095,4095
3.661023134998686,2317,4095,4095
3.663716597999155,2493,4095,4095
3.6664047699996445,1748,4095,4095
3.6690936090017203,2113,4095,4095
3.671783322999545,1535,4095,3467
3.6744702870018955,2218,4095,4095
3.677158041999064,2000,4095,4095
3.679844713999046,2035,4095,4095
3.682531761001883,2024,3637,3163
3.6852192250007647,1850,3472,3088
3.6879091060000064,2170,4095,4095
3.690597778000665,1597,4095,4095
3.693285282999568,1968,4095,4095
3.695973497000523,1789,954,2718
3.6986619609997433,2478,4095,4095
3.7013479250017554,2112,2861,3210
3.704036137998628,2641,4095,4095
3.70672956099952,2378,4095,4095
3.709417524001765,2546,4095,4095
3.712107905001176,2209,4095,3647
3.714796784999635,3435,4095,4095
3.71748370700152,3680,4095,4095
3.7201715049995983,4095,4095,4095
3.7228616770007648,3919,3233,3195
3.725546932000725,3953,227,2498
3.728234853999311,4095,4095,4095
3.73092248499961,3819,4095,3870
3.7336091979996127,4095,4095,4095
3.736296745999425,3198,2767,3165
3.73898620899854,3452,4095,4095
3.741675839999516,2156,2967,3098
3.744364386999223,2060,4095,4095
3.7470548509991204,1475,4095,4095
3.7497702309992746,1062,4095,4095
3.752461277999828,1035,4095,4095
3.755151367000508,1201,4095,4095
3.7578412059992843,1360,4095,4095
3.7605293779997737,1585,4095,4095
3.76321842499965,1296,4095,4095
3.7659072640017257,1067,2475,3160
3.7685957690009673,1535,4095,4095
3.7712856079997437,1081,4095,3639
3.7739730719986255,1856,4095,4095
3.776659743998607,1677,4095,3630
3.779346415998589,2243,4095,3661
3.782034587999078,2052,3661,3309
3.7847202189987,2495,4095,4095
3.787409099000797,2318,4095,4095
3.7900957300007576,1968,4095,4095
3.792782568001712,1710,2643,3173
3.7954706989985425,1899,1981,2720
3.7981686210005137,2593,4095,4095
3.80085583500113,2559,4095,4095
3.8035457149999274,2698,4095,4095
3.806235553998704,1936,4095,3801
3.808921518000716,2320,4095,4095
3.8116092320015014,1744,4095,3549
3.814296653999918,2422,4095,4095
3.81698261800193,2106,4095,4095
3.8196691230004944,2247,3632,3487
3.8223590449997573,2251,4095,3367
3.825045716999739,2605,4095,4095
3.827733805999742,2445,4095,4095
3.83042056100021,1919,4095,4095
3.833109899998817,1855,4095,4095
3.835799197000597,2066,384,2557
3.838487577999331,2784,4095,4095
3.841175124998699,2319,3045,3223
3.843862589001219,2832,4095,4095
3.8465498440018564,2348,4095,4095
3.849237557999004,2429,4095,4095
3.8519251469988376,1870,4095,3427
3.8546133609997923,2559,4095,4095
3.857298241000535,2624,4095,4095
3.8603056220017606,2800,4095,4095
3.8630536279997614,2357,2677,2998
3.8658376329985913,2169,1507,2847
3.8685720559988113,2544,4095,4095
3.8713145190013165,1931,4095,3617
3.874054399999295,2608,4095,4095
3.87680490600178,2265,4095,3774
3.879530578000413,2426,2335,3152
3.882261708000442,2432,4095,3765
3.8849907549993077,2947,4095,4095
3.887720302998787,2683,4095,4095
3.8904494749986043,2126,4095,4095
3.8931758549988444,2071,4095,4095
3.8959038610009884,2273,656,2638
3.8986359920018003,3197,4095,4095
3.901365039000666,2531,2972,3200
3.904094753001118,3227,4095,4095
3.9068228409996664,2699,4095,4095
3.909549430001789,2555,4095,4095
3.912278978001268,2354,4095,4095
3.9150073999990127,2832,4095,4095
3.9177319049995276,3088,4095,4095
3.9204977029985457,3274,4095,4095
3.923233165998681,2795,4095,4095
3.9259660890020314,2263,2780,3200
3.9286939689991414,2630,4095,4095
3.9314240999992762,1988,4095,3647
3.9341518969995377,2661,4095,4095
3.936877235999418,2273,4095,4095
3.939603700000589,2401,3023,3359
3.9423307050019503,2388,4095,3445
3.945055336000223,2750,4095,4095
3.9489081770007033,2559,4095,4095
3.9516478910009027,2001,4095,4095
3.9543781460015452,2553,4095,4095
3.9571057770008338,2357,4095,4095
3.9598360320014763,2321,4095,4095
3.9625900800019735,2290,3024,3015
3.965333960000862,2112,1743,2629
3.968065340999601,2433,4095,4095
3.9708299300000363,1793,4095,3855
3.973590935001994,2403,4095,4095
3.976331690999359,2064,2937,3248
3.9790689459987334,2820,4095,4095
3.981843576999381,2239,2887,3222
3.984580166001251,2654,4095,4095
3.987315505000879,2410,4095,4095
3.9900492189990473,2075,4095,4095
3.992784557001869,1754,2757,3231
3.9955181049990642,1933,1330,2583
3.9982554849993903,2618,4095,4095
4.00098932399851,2177,4095,3312
4.003727287999936,2639,4095,4095
4.006465001999459,1984,4095,4095
4.009259924001526,2223,4095,4095
4.012046388001181,1660,4095,3426
4.014786894000281,2343,4095,4095
4.017520149001939,2421,4095,4095
4.0202583220016095,2663,4095,4095
4.022994577000645,2065,4095,4095
4.025728873999469,1872,1673,2945
4.028506130001915,2215,4095,4095
4.031246468999598,1618,4095,3707
4.033985891001066,2261,4095,4095
4.036718980001751,1936,4095,3799
4.039456152000639,2093,2339,3143
4.042192991000775,2099,4095,3747
4.044926246999239,2486,4095,4095
4.047663126999396,2281,4095,4095
4.050401049000357,1749,4095,4095
4.053133138000703,1773,4095,4095
4.055871519001812,1894,790,2672
4.058617648999643,2559,4095,4095
4.061354987999948,2135,2969,3181
4.0641281610005535,2559,4095,4095
4.0668355410016375,2284,4095,4095
4.069532379999146,2117,4095,4095
4.0722585520015855,2159,4095,4095
4.074996849001764,2368,4095,4095
4.077695771000435,2480,4095,4095
4.080439026998647,2658,4095,4095
4.083131741001125,2483,4095,4095
4.085821663000388,1877,2768,3195
4.088513085000159,2231,4095,4095
4.091207132001728,1623,4095,3658
4.0938998040001024,2279,4095,4095
4.0965874350004015,1945,4095,3760
4.099278148001758,2096,2485,3088
4.1019691539986525,2112,4095,3431
4.104657159001363,2501,4095,4095
4.107346998000139,2288,4095,4095
4.1100372949986195,1927,4095,4095
4.112726592000399,1691,3037,3317
4.115416598000593,1891,1189,2559
4.118108145001315,2594,4095,4095
4.120798650001234,2506,4095,4095
4.123489697998593,2700,4095,4095
4.126181660998554,1924,4095,4095
4.128870874999848,2293,4095,4095
4.131559296998603,1727,4095,3530
4.134248219001165,2394,4095,4095
4.136936391998461,2156,4095,4095
4.139626438998675,2213,4095,3916
4.14231490200109,2207,3501,3167
4.1450012829991465,2128,4003,3782
4.147690829999192,2387,4095,4095
4.150379669001268,1904,4095,4095
4.1530700910007,2150,4095,4095
4.15576072100157,1996,925,2681
4.158452602001489,2693,4095,4095
4.161145106998447,2215,2832,3152
4.163838028998725,2672,4095,4095
4.166528827001457,2301,4095,4095
4.169217249000212,2267,4095,4095
4.171907837000617,1712,4095,3757
4.174595675998717,2382,4095,4095
4.177282598000602,2441,4095,4095
4.179970354001853,2649,4095,4095
4.182661276001454,2092,3248,3235
4.185349655999744,1881,215,2495
4.188037329000508,2193,4095,4095
4.190725167001801,1558,4095,3873
4.193413380999118,2153,4095,4095
4.196102137000707,1810,2672,3168
4.198791558999801,2493,4095,4095
4.201478771999973,2020,2850,3197
4.2041675280015625,2427,4095,4095
4.206857282999408,2179,4095,4095
4.2095462050019705,1965,4095,4095
4.212235752998822,2042,4095,4095
4.214925216001575,2224,4095,4095
4.217616263998934,2352,4095,4095
4.220308268999361,2485,4095,4095
4.223000232999766,2027,4095,4095
4.225689363000129,1758,2380,3122
4.228415576999396,2134,4095,4095
4.231108166000922,1502,4095,3696
4.233822630001669,2145,4095,4095
4.236512759998732,1820,4095,3680
4.239203765999264,1978,2445,2992
4.241894687998865,1994,3809,3361
4.244584692998615,2387,4095,4095
4.247275323999929,2181,4095,4095
4.24996778700006,1840,4095,4095
4.252657418001036,1576,2992,3323
4.255348382001102,1757,1279,2559
4.258039470998483,2415,4095,4095
4.260728018001828,2187,4095,4095
4.263429940001515,2423,4095,4095
4.2661206949996995,1674,4095,4095
4.268808867000189,2058,4095,4095
4.2714984560007,1522,4095,3529
4.274187628001528,2242,4095,4095
4.276876092000748,2096,4095,4095
4.279567556000984,2225,4095,4095
4.282258227998682,2369,3309,3155
4.284950067001773,2421,3648,3641
4.287667446998967,3328,4095,4095
4.290359910999541,2821,4095,4095
4.293048292001913,3783,4095,4095
4.295737129999907,3671,1181,2764
4.298427677000291,4095,4095,4095
4.301115808000759,4095,2736,3177
4.303804938001122,4095,4095,4095
4.30649490200085,4095,4095,4095
4.309183657998801,4059,4095,4095
4.311873121001554,2415,4095,4095
4.314564293999865,2394,4095,4095
4.3172547569993185,1903,4095,4095
4.319946888001141,1762,4095,4095
4.322636142998817,1071,3422,3184
4.32532343999992,816,413,2559
4.328013778998866,1154,4095,4095
4.330703576000815,577,4095,3865
4.333391539999866,1271,4095,4095
4.336083004000102,1051,2850,3190
4.338772508999682,1857,4095,4095
4.341462347998458,1533,2614,3142
4.344155311999202,2065,4095,4095
4.3468463589997555,1967,4095,4095
4.349535656001535,1839,4095,4095
4.352227578001475,1999,4095,4095
4.354918084001838,2260,4095,4095
4.357605838999007,2417,4095,4095
4.360295511000004,2551,4095,4095
4.362989766999817,2427,4095,4095
4.365679105998424,1849,2750,3199
4.368370778000099,2208,4095,4095
4.3710659079988545,1615,4095,3668
4.373788996999792,2263,4095,4095
4.3764850859988655,1946,4095,3747
4.379176215999905,2115,2256,3098
4.381865388000733,2135,3799,3349
4.384553477000736,2542,4095,4095
4.387242773998878,2333,4095,4095
4.3899366129990085,1957,4095,4095
4.392625243999646,1726,3280,3389
4.395312999000453,1914,912,2503
4.398003921000054,2602,4095,4095
4.400691177001136,2498,4095,4095
4.403380889998516,2691,4095,4095
4.406069854001544,1923,4095,4095
4.4087603600019065,2291,4095,4095
4.411451864998526,1728,4095,3519
4.41414170400094,2401,4095,4095
4.416830000998743,2288,4095,4095
4.419519547998789,2227,4095,4095
4.422208345000399,2223,3291,3126
4.424901100999705,2064,3297,3086
4.427592648000427,2413,4095,4095
4.430281862001721,1859,4095,4095
4.432971242000349,2279,4095,4095
4.4356603720007115,2055,1057,2727
4.438349961001222,2786,4095,4095
4.441038382999977,2315,3014,3145
4.44373201399867,2827,4095,4095
4.446423728000809,2449,4095,4095
4.44911194100132,2405,4095,4095
4.451801447001344,1872,4095,4095
4.454492160999507,2589,4095,4095
4.457178958000441,2678,4095,4095
4.459904963001463,3037,4095,4095
4.46266476099845,2352,3755,3279
4.465416099999857,2182,843,2701
4.4681297300012375,2541,4095,4095
4.470819694000966,1922,4095,3823
4.473506283000461,2581,4095,4095
4.476207746,2211,3872,3456
4.4789046270016115,3152,4095,4095
4.481594174001657,2421,2709,3201
4.484281638000539,2914,4095,4095
4.48697014299978,2642,4095,4095
4.489658606999001,2219,4095,4095
4.492348821000633,1955,2906,3136
4.495039743000234,2123,3200,3118
4.497725872999581,2877,4095,4095
4.500455587000033,2969,4095,4095
4.503146176000882,2971,4095,4095
4.5058433070007595,2113,4095,3632
4.508534603999578,2474,4095,4095
4.511225108999497,1867,4095,3583
4.513915240000642,2512,4095,4095
4.516603495001618,2156,4095,4095
4.519293417000881,2286,3230,3373
4.52197913100099,2279,4095,3551
4.524670844999491,2677,4095,4095
4.527362766999431,2432,4095,4095
4.530052897000132,2018,4095,4095
4.532740902999649,1805,4095,4095
4.5354323249994195,1978,257,2487
4.538123329999507,2672,4095,4095
4.540814586001943,2218,3581,3201
4.543504840999958,2704,4095,4095
4.546198430001823,2158,4095,4095
4.548886769000092,2246,4095,4095
4.551577065998572,1671,4095,3445
4.554266863000521,2333,4095,4095
4.556954784999107,2357,4095,4095
4.5596432070015,2316,4095,4095
4.562332588000572,2087,2613,3023
4.56503584299935,1899,1136,2534
4.567738140001893,2229,4095,4095
4.57043231300122,1596,4095,3873
4.573126985000272,2189,4095,4095
4.575826573000086,1849,2152,3071
4.578521703999286,2509,4095,4095
4.581210126001679,2047,2599,3153
4.583898922999651,2494,4095,4095
4.586587928999506,2198,4095,4095
4.589276267000969,2023,4095,4095
4.591963981001754,2011,4095,4095
4.594653487001779,2247,4095,4095
4.59734278399992,2351,4095,4095
4.600032539001404,2533,4095,4095
4.602725085998827,1971,4095,4095
4.6054152169999725,1786,1698,2924
4.608105638999405,2122,4095,4095
4.610793561001628,1521,4095,3801
4.613480274998437,2160,4095,4095
4.616168529999413,1835,4000,3483
4.618857161000051,2545,4095,4095
4.621544165998785,2023,2767,3215
4.6242352970002685,2421,4095,4095
4.626928885001689,2220,4095,4095
4.62961814099981,1919,4095,4095
4.632308438001928,1583,3034,3138
4.63499936000153,1757,3085,3061
4.637688990998868,2416,4095,4095
4.64041420400099,2480,4095,4095
4.643105917999492,2507,4095,4095
4.645821131998673,1773,4095,3601
4.648630178999156,2126,4095,4095
4.651343727000494,1526,4095,3568
4.654047856998659,2186,4095,4095
4.656739778998599,2064,4095,4095
4.659433035001712,1959,4095,4095
4.6621605820000696,1925,3537,3087
4.664864836999186,1744,3031,2943
4.667565384999762,2071,4095,4095
4.6702586819992575,1465,4095,4095
4.67294597900036,2027,4095,4095
4.675641150999581,1694,1481,2812
4.678335030999733,2365,4095,4095
4.681025079000392,1938,2643,3155
4.683713751001051,2373,4095,4095
4.686402006002027,2077,4095,4095
4.689090345000295,1991,4095,4095
4.691777559000911,1520,4095,4095
4.694467647001147,2229,4095,4095
4.697159153001849,2342,4095,4095
4.6998524500013446,2627,4095,4095
4.7025416219985345,2039,4069,3293
4.705228503000399,1865,870,2688
4.707919591000973,2222,4095,4095
4.710610389000067,1613,4095,4095
4.713297561000218,2229,4095,4095
4.715986608000094,1898,3231,3311
4.718674447001831,2629,4095,4095
4.721362035001221,2113,2672,3182
4.724051624001731,2529,4095,4095
4.726754921000975,2318,4095,4095
4.729443593001633,2067,4095,4095
4.7321345989985275,2023,4095,4095
4.73482431299999,2225,4095,4095
4.737511610001093,2525,4095,4095
4.740201574000821,2598,4095,4095
4.742891204001353,2559,4095,4095
4.74557941799867,1871,3123,3294
4.748269673000323,2215,4095,4095
4.750957387001108,1616,4095,3642
4.753646934001154,2247,4095,4095
4.756335606001812,1904,4095,3839
4.759025070001371,2046,2176,3088
4.7617145760013955,2054,3888,3534
4.7644588309995015,2417,4095,4095
4.767159962000733,2182,4095,4095
4.769851425000525,1753,4095,4095
4.772540097001183,1529,4095,3649
4.775229394999769,1705,380,2448
4.777958692000539,2373,4095,4095
4.78069153099932,1966,3909,3291
4.783396120001271,2410,4095,4095
4.786089291999815,1869,4095,4095
4.78878308899948,2022,4095,4095
4.791473010998743,1462,4095,3493
4.794170724999276,2128,4095,4095
4.796860646998539,2141,4095,4095
4.799554361001356,2318,4095,4095
4.802244615999371,1915,2837,3084
4.8049329970017425,1744,1037,2499
4.807622835000075,2081,4095,4095
4.810311091001495,1451,4095,4095
4.813000887999806,2061,4095,4095
4.8156903099988995,1728,2035,3019
4.818382440000278,2395,4095,4095
4.82106990399916,1955,2897,3199
4.823758492999332,2372,4095,4095
4.8264522069985105,2118,4095,4095
4.829141254002025,1965,4095,4095
4.831832926000061,1872,4095,4095
4.834522223001841,2178,4095,4095
4.83721968700047,2293,4095,4095
4.839908734000346,2495,4095,4095
4.842598281000392,1881,4095,4095
4.845288495002023,1687,1776,2923
4.8479802920010115,2025,4095,4095
4.8506706730004225,1428,4095,3887
4.853359886001272,2096,4095,4095
4.856047892000788,1815,3943,3487
4.858738064001955,2587,4095,4095
4.861427403000562,2153,2700,3189
4.864118450001115,2735,4095,4095
4.866806455000187,2736,4095,4095
4.869494169000973,2714,4095,4095
4.87218167500032,2555,2963,3159
4.874870137999096,3040,3175,3058
4.877558019001299,4095,4095,4095
4.880248648998531,4095,4095,4095
4.882939612998598,4095,4095,4095
4.885624285001541,4095,4018,3564
4.888315790998604,4095,4095,4095
4.891008795999369,2992,4095,3565
4.893697968000197,3248,4095,4095
4.89641947400014,1991,4095,4095
4.899111812999763,1623,2977,3348
4.901826650999283,1295,4095,3655
4.90451657399899,1463,4095,4095
4.907205954001256,1169,4095,4095
4.909895333999884,775,4095,4095
4.91258142299921,604,4095,4095
4.915269011999044,862,293,2528
4.917956809000316,1625,4095,4095
4.920646356000361,1333,3577,3191
4.923345402999985,1876,4095,4095
4.926036909000686,1535,4095,4095
4.928723498000181,1762,4095,4095
4.931412085999909,1323,4095,3504
4.934100925001985,2083,4095,4095
4.9367898470009095,2173,4095,4095
4.939478061001864,2219,4095,4095
4.942168107998441,2006,2629,3053
4.944855697001913,1841,1100,2513
4.947545077000541,2190,4095,4095
4.9502487079989805,1573,4095,4091
4.952944962999027,2170,4095,4095
4.955638969000574,1843,2061,3007
4.958331016001466,2528,4095,4095
4.961017605000961,2086,2609,3152
4.963705109999864,2517,4095,4095
4.966395031999127,2253,4095,4095
4.969080203998601,2111,4095,4095
4.971768834999239,2000,4095,4095
4.974457423999411,2351,4095,4095
4.977144137999858,2463,4095,4095
4.979833810000855,2709,4095,4095
4.98265281500062,2109,4095,4095
4.98534048700094,1918,2370,3135
4.988029035001091,2275,4095,4095
4.990719915000227,1685,4095,3838
4.993410587001563,2335,4095,4095
4.996099176001735,2001,4095,3654
4.998789015000511,2613,4095,3722
5.001476894998632,2202,3170,3327
5.004164483998466,2633,4095,4095
5.006852823000372,2417,4095,4095
5.009592495000106,2135,4095,4095
5.012307708999288,1791,2582,3184
5.015000172999862,1981,1286,2591
5.017689386000711,2704,4095,4095
5.020409683998878,2594,4095,4095
5.023099564001313,2783,4095,4095
5.025815110999247,2002,4095,4095
5.028504242000054,2378,4095,4095
5.031193746999634,1813,4095,3510
5.033901252998476,2499,4095,4095
5.036612633000914,2341,4095,4095
5.039312054999755,2325,4095,4095
5.042006310999568,2321,3200,3030
5.044695066000713,2160,2334,2771
5.047385488000145,2507,4095,4095
5.050075077000656,1934,4095,4095
5.052761582999665,2478,4095,4095
5.055450921001466,2142,1412,2801
5.058139927001321,2941,4095,4095
5.060826641001768,2387,2800,3182
5.0635147290013265,2896,4095,4095
5.0662039009985165,2529,4095,4095
5.068890032001946,2431,4095,4095
5.071578037001018,1888,4095,4095
5.074265126000682,2606,4095,4095
5.076951882001595,2698,4095,4095
5.079641053998785,3062,4095,4095
5.082377433998772,2311,3676,3254
5.085088105999603,2116,819,2678
5.087778654000431,2448,4095,4095
5.090468201000476,1842,4095,4095
5.093157997998787,2434,4095,4095
5.095845545001794,2096,3319,3334
5.098535884000739,2867,4095,4095
5.1012227229985,2283,2519,3139
5.10391256100047,2707,4095,4095
5.106601192001108,2457,4095,4095
5.109287739000138,2175,4095,4095
5.111977535998449,2158,4095,3984
5.114668000001984,2277,4095,4095
5.117358380000951,2625,4095,4095
5.120048510998458,2755,4095,4095
5.122735724999075,2725,4095,4095
5.125421188000473,1965,3280,3387
5.128111694000836,2306,4095,4095
5.130801324001368,1713,4095,3712
5.133490413001709,2356,4095,4095
5.136177667998709,2021,4095,3883
5.13886492399979,2167,2288,3130
5.1415516790002584,2169,3512,3428
5.144241017998866,2549,4095,4095
5.146932481999102,2320,4095,4095
5.1496219459986605,2000,4095,4095
5.152310992998537,1687,3311,3397
5.154999706999661,1872,800,2489
5.157686794998881,2549,4095,4095
5.160404467998887,2453,4095,4095
5.163093765000667,2608,4095,4095
5.165808894998918,1812,4095,4095
5.168498734001332,2163,4095,4095
5.17118919800123,1584,4095,3501
5.173878162000619,2266,4095,4095
5.176566709000326,2162,4095,4095
5.179258131000097,2082,4095,4095
5.1819462200001,2066,3040,3110
5.184636975001922,1888,2384,2806
5.187324439000804,2224,4095,4095
5.1900132359987765,1728,4095,4095
5.192701575000683,2195,4095,4095
5.195389996999438,1871,1391,2826
5.1980786269996315,2553,4095,4095
5.200766298999952,2118,2873,3217
5.203453972000716,2549,4095,4095
5.20614210200074,2239,4095,4095
5.2088310239996645,2149,4095,4095
5.211522445999435,1633,4095,4095
5.214212785002019,2320,4095,4095
5.2168980819988064,2416,4095,4095
5.2195872960001,2695,4095,4095
5.222275885000272,2080,3933,3266
5.22496322400184,1894,631,2655
5.2276521870007855,2228,4095,4095
5.230339734000154,1616,4095,4095
5.233027656999184,2241,4095,4095
5.235715537000942,1920,3058,3265
5.238409376001073,2661,4095,4095
5.241096423000272,2126,2703,3132
5.243784053000127,2543,4095,4095
5.246472350001568,2323,4095,4095
5.249159688999498,2079,4095,4095
5.251849610998761,2147,4095,4095
5.254537617001915,2366,4095,4095
5.257223289001558,2502,4095,4095
5.259910919001413,2655,4095,4095
5.262599632998899,2435,4095,4095
5.265310972001316,1867,2908,3250
5.268051978000585,2215,4095,4095
5.270805316999031,1623,4095,3770
5.273535405001894,2274,4095,4095
5.276266952998412,1959,4095,4095
5.2790032910015725,2112,3143,3386
5.281735214000946,2121,4095,3600
5.284510052999394,2465,4095,4095
5.287237683001877,2301,4095,4095
5.289966355001525,1862,4095,4095
5.292688485998951,2240,4095,4095
5.295417782999721,1967,1488,2825
5.298149329999433,2687,4095,4095
5.300877043999208,2214,2724,3184
5.303608132999216,2646,4095,4095
5.3063503470002615,2369,4095,4095
5.309076894001919,2177,4095,4095
5.311805315999663,2270,4095,4095
5.314533280001342,2473,4095,4095
5.317262994001794,2637,4095,4095
5.31999445800102,2797,4095,4095
5.322725337999145,2797,4095,4095
5.325453344001289,1998,3776,3488
5.32818314099859,2355,4095,4095
5.330911437999021,1764,4095,3657
5.3336380690016085,2432,4095,4095
5.33636657399984,2115,4095,4095
5.339094955001201,2246,4095,3707
5.341854752001382,2230,3696,3138
5.344583383001009,2042,3408,3088
5.347310680001101,2366,4095,4095
5.350043269001617,1806,4095,4095
5.352766315998451,2306,4095,4095
5.3554948220007645,1955,2057,3025
5.358225618998404,2629,4095,4095
5.360952291001013,2147,2971,3115
5.363680047001253,2551,4095,4095
5.3664058440008375,2287,4095,4095
5.369131224000739,2073,4095,4095
5.371859021001001,2099,4095,4095
5.374585984998703,2207,4095,4095
5.377311074000318,2465,4095,4095
5.380038245999458,2559,4095,4095
5.382768793999276,2583,4095,4095
5.385497131999728,1820,4095,3552
5.3882240550010465,2173,4095,4095
5.390953434998664,1600,4095,3541
5.3936730659988825,2259,4095,4095
5.396443071000249,1999,4095,4095
5.399171993998607,2080,4095,4095
5.401901582001301,2070,3247,3089
5.4046269210011815,1899,2091,2721
5.40735559300083,2239,4095,4095
5.412199062000582,1616,4095,4095
5.414948942001502,1842,1134,2538
5.417678656001954,2544,4095,4095
5.420446453001205,2127,4095,3297
5.423176416999922,2559,4095,4095
5.425905756001157,2128,4095,4095
5.428629678001016,2193,4095,4095
5.431355976001214,1637,4095,3385
5.43408181400082,2302,4095,4095
5.436805237000954,2355,4095,4095
5.439532575001067,2624,4095,4095
5.4422732060011185,2064,4052,3323
5.445008045000577,1936,1050,2737
5.447743674998492,2338,4095,4095
5.450472472999536,1819,4095,3779
5.453202560998761,2625,4095,4095
5.45594015000097,2459,4095,3579
5.458669572999497,3312,3682,3556
5.461395203001302,3202,3334,3390
5.464124499998434,4095,4095,4095
5.466828256001463,4095,4095,4095
5.469516428001953,4095,4095,4095
5.472205475001829,4095,3471,3482
5.474894355000288,4095,633,2449
5.477584528001898,4095,4095,4095
5.480276615999173,3786,4095,3334
5.482966621999367,3702,4095,4095
5.485655544001929,2022,4095,4095
5.488343133001763,1885,4095,4095
5.4910325550008565,992,4095,3447
5.4937217270016845,1477,4095,4095
5.496439648999512,1325,4095,4095
5.4991279050009325,1207,4095,4095
5.501841952001996,1224,2915,3067
5.504530165999313,1102,2431,2801
5.507220296000014,1514,4095,4095
5.509912092999002,976,4095,4095
5.512602639999386,1701,4095,4095
5.515294020999136,1506,1695,2902
5.517983401001402,2292,4095,4095
5.520672448001278,1998,2719,3189
5.5233619950013235,2523,4095,4095
5.526049875999888,2287,4095,4095
5.528736715001287,2214,4095,4095
5.531424636999873,1743,4095,4095
5.5341171420004684,2449,4095,4095
5.536804856001254,2557,4095,4095
5.539494320000813,2853,4095,4095
5.542185533999145,2198,4095,3443
5.544875621999381,2034,863,2691
5.547565920001944,2398,4095,4095
5.550253967001481,1795,4095,3829
5.552940514000511,2432,4095,4095
5.555627893998462,2101,3205,3301
5.558317607999925,2896,4095,4095
5.5610053630007314,2310,2951,3205
5.5636943690005864,2768,4095,4095
5.566381541000737,2527,4095,4095
5.569069130000571,2270,4095,4095
5.571759094000299,2262,4095,4095
5.57445105700026,2467,4095,4095
5.577141729998402,2780,4095,4095
5.57983090199923,2899,4095,4095
5.582520074000058,2864,4095,4095
5.585207788000844,2123,3186,3305
5.58789737600091,2499,4095,4095
5.590585090001696,1903,4095,3583
5.593273137001233,2593,4095,4095
5.595961975999671,2239,4095,3818
5.598648022998532,2394,2384,3082
5.601334987000882,2405,4095,3489
5.6040240340007585,2902,4095,4095
5.6067157899997255,2653,4095,4095
5.609406711999327,2247,4095,4095
5.612098174999119,2013,3226,3333
5.614787097998487,2219,912,2512
5.617476395000267,3109,4095,4095
5.620166357999551,2709,4095,4095
5.622851946998708,3231,4095,4095
5.625539369000762,2238,4095,4095
5.628225708001992,2640,4095,4095
5.630913755001529,2038,4095,3459
5.633601010998973,2771,4095,4095
5.636290140999336,2626,4095,4095
5.63898018799955,2536,4095,3899
5.6416694020008435,2533,4095,3227
5.644361866001418,2377,3398,3050
5.647055870998884,2768,4095,4095
5.6497716269986995,2163,4095,4095
5.652461091001896,2559,4095,4095
5.655150388000038,2317,1242,2797
5.657839018000232,3227,4095,4095
5.660532982001314,2545,2709,3167
5.663221904000238,3238,4095,4095
5.665921284999058,2672,4095,4095
5.668618622999929,2583,4095,4095
5.671310461999383,2030,4095,4095
5.674002509000275,2757,4095,4095
5.676689848001843,2831,4095,4095
5.679376895001042,3285,4095,4095
5.682067276000453,2412,3557,3232
5.68475349000073,2221,561,2624
5.6874411620010505,2559,4095,4095
5.690129458998854,1923,4095,3851
5.692817256000126,2547,4095,4095
5.695503636001376,2189,3024,3259
5.698190432998672,3014,4095,4095
5.700877188999584,2371,2847,3203
5.703565277999587,2847,4095,4095
5.706253950000246,2559,4095,4095
5.70894103899991,2307,4095,4095
5.711627126998792,2402,4095,4095
5.714316383000551,2609,4095,4095
5.717002680001315,2783,4095,4095
5.7196910599996045,2947,4095,4095
5.722381357998529,2559,4095,4095
5.725068654999632,2102,2694,3189
5.72775782700046,2461,4095,4095
5.730446541001584,1851,4095,3665
5.733136546001333,2495,4095,4095
5.73582588499994,2149,4095,3737
5.738513389998843,2290,2710,2937
5.741200686999946,2297,3515,3407
5.743897275999188,2706,4095,4095
5.746590282000398,2464,4095,4095
5.7492788290001045,2091,4095,4095
5.751967418000277,1821,2881,3227
5.754656880999391,1994,1515,2645
5.757345095000346,2691,4095,4095
5.76003347599908,2651,4095,4095
5.762723148000077,2747,4095,4095
5.765413861001434,1965,4095,4095
5.768105366998498,2324,4095,4095
5.770800414000405,1756,4095,3503
5.773488752998674,2426,4095,4095
5.776190882999799,2187,4095,4095
5.778891514000861,2206,4095,3694
5.781584185999236,2181,4095,3297
5.784277607999684,2032,3941,3697
5.78696778000085,2321,4095,4095
5.789657244000409,1795,4095,4095
5.792344207999122,1925,4095,4095
5.795034754999506,1904,897,2681
5.797721260001708,2559,4095,4095
5.800453390998882,2147,2800,3149
5.803176395998889,2590,4095,4095
5.80589486000099,2230,4095,4095
5.808593824000127,2147,4095,4095
5.81129266300195,1661,4095,4095
5.813989127000241,2352,4095,4095
5.816681798998616,2435,4095,4095
5.8193785959992965,2701,4095,4095
5.822073226001521,2070,4095,3345
5.825695692001318,1887,992,2702
5.828438239001116,2240,4095,4095
5.831138494999323,1641,4095,3459
5.83383433400013,2333,4095,4095
5.8365275469986955,2396,4095,4095
5.839222595001047,2624,4095,4095
5.841918182999507,2070,3086,3152
5.8446043969997845,1883,256,2486
5.847298486001819,2233,4095,4095
5.849995699998544,1613,4095,3838
5.852688955001213,2234,4095,4095
5.855384669001069,1894,2807,3188
5.8580811739993806,2599,4095,4095
5.860775222001394,2100,2667,3140
5.863472477001778,2521,4095,4095
5.866165523999371,2277,4095,4095
5.868856738001341,2033,4095,4095
5.871552452001197,2111,4095,4095
5.874247873998684,2362,4095,4095
5.876940504000231,2493,4095,4095
5.879635426001187,2608,4095,4095
5.882330599000852,2448,4095,4095
5.885021936999692,1897,2799,3206
5.887719484999252,2269,4095,4095
5.890413239998452,1682,4095,3583
5.893098454002029,2341,4095,4095
5.895790793001652,2002,4095,3787
5.898490964998928,2159,2336,2992
5.901183679001406,2169,4095,3471
5.903874850999273,2592,4095,4095
5.906571063998854,2386,4095,4095
5.909264027999598,1999,4095,4095
5.911959075001505,1789,3010,3259
5.914654413998505,1975,811,2453
5.917345960999228,2688,4095,4095
5.92004338300103,2463,4095,4095
5.922737597000378,2748,4095,4095
5.925431519000995,1947,4095,4095
5.928128399998968,2323,4095,4095
5.930823864000558,1744,4095,3435
5.93351532700035,2421,4095,4095
5.9362112499984505,2246,4095,4095
5.938907838000887,2192,4095,4095
5.941598927001905,2162,3471,3163
5.944293807999202,1981,2336,2749
5.946990062999248,2311,4095,4095
5.949680735000584,1648,4095,3739
5.952383199000906,2239,4095,4095
5.955080496001756,1870,1535,2831
5.9578040429987595,2523,4095,4095
5.960500132001471,2078,2850,3183
5.96319576300084,2510,4095,4095
5.965892018000886,2207,4095,4095
5.968583440000657,2067,4095,4095
5.971279028999561,1601,4095,4095
5.973973451000347,2297,4095,4095
5.976659956999356,2379,4095,4095
5.979352419999486,2640,4095,4095
5.9820490929996595,2125,4095,3430
5.984740348001651,1825,1317,2790
5.987434562000999,2179,4095,4095
5.990130608999607,1570,4095,3788
5.992824363998807,2205,4095,4095
5.995521870001539,1872,3641,3423
5.998215625000739,2534,4095,4095
6.000908089001314,2058,3173,3152
6.003602220000175,2461,4095,4095
6.006296267001744,2246,4095,4095
6.008987689001515,1895,4095,4095
6.011735903000954,1615,3112,3104
6.014469325000391,1790,3150,3051
6.01716245499847,2458,4095,4095
6.019859336000081,2496,4095,4095
6.022555049999937,2527,4095,4095
6.025249346999772,1757,4095,3807
6.02794410199931,2111,4095,4095
6.030639857999631,1531,4095,3479
6.03333115499845,2224,4095,4095
6.036027702000865,1979,4095,4095
6.038722624001821,2116,4095,3664
6.041414087998419,2177,4095,3457
6.04410905199984,2511,4095,3965
6.046804099001747,2699,4095,4095
6.049495687999297,2352,4095,4095
6.052190735001204,2709,4095,4095
6.05488473999867,3029,767,2654
6.057577329000196,4095,4095,4095
6.0602703760014265,4095,3111,3134
6.0629645900007745,4095,4095,4095
6.065654886999255,4095,4095,4095
6.068348101001902,4095,4095,4095
6.071043439998903,3328,4095,3254
6.073733737001021,3760,4095,4095
6.076455201000499,3070,4095,4095
6.079150581001159,2657,4095,4095
6.081844211999851,1702,3198,3165
6.08453550899867,1259,321,2512
6.087231305999012,1430,4095,4095
6.089995228001499,701,4095,3782
6.092737317001593,1293,4095,4095
6.09543811399999,976,3491,3344
6.09813082799883,1712,4095,4095
6.10082091699951,1274,2890,3184
6.103510172000824,1751,4095,4095
6.106203178002033,1658,4095,4095
6.108891183001106,1483,4095,4095
6.111580605000199,1395,4095,4077
6.1142702770011965,1535,3773,3730
6.11696157500046,2309,4095,4095
6.119653622001351,2490,4095,4095
6.122343044000445,2590,4095,4095
6.1250315489996865,1856,3646,3441
6.127720054999372,2243,4095,4095
6.130408226999862,1661,4095,3486
6.1330967739995685,2326,4095,4095
6.135785737998958,1998,4095,4095
6.1384751180012245,2157,2497,3139
6.141162790001545,2169,4095,3472
6.14385362900066,2592,4095,4095
6.146551092999289,2383,4095,4095
6.149239264999778,1863,4095,4095
6.151929644998745,1745,3568,3473
6.154618109001603,1967,352,2403
6.157303489999322,2663,4095,4095
6.159994536999875,2239,4095,3287
6.162683167000068,2759,4095,4095
6.165371547998802,1994,4095,4095
6.1680751370004145,2353,4095,4095
6.170776767001371,1783,4095,3354
6.173467647000507,2481,4095,4095
6.176159528000426,2463,4095,4095
6.178851658001804,2266,4095,4095
6.181541246998677,2254,3099,3019
6.184233668998786,2094,1868,2635
6.186923550001666,2457,4095,4095
6.1896139300006325,1822,4095,3767
6.192304226999113,2453,4095,4095
6.194993608001823,2103,1693,2891
6.197682530000748,2855,4095,4095
6.2004097850003745,2348,2699,3127
6.2031004579985165,2880,4095,4095
6.205820295999729,2523,4095,4095
6.208511427001213,2376,4095,4095
6.211199516001216,1916,4095,4095
6.213890312999865,2658,4095,4095
6.216579359999741,2771,4095,4095
6.219269532000908,3223,4095,4095
6.221958621001249,2368,4095,3527
6.224645876001887,2192,1355,2805
6.227334423001594,2559,4095,4095
6.230023887001153,1941,4095,3635
6.232711308999569,2615,4095,4095
6.235399523000524,2240,3698,3392
6.238088361998962,3205,4095,4095
6.24077832599869,2418,2884,3211
6.243469706001633,2948,4095,4095
6.246159587000875,2662,4095,4095
6.2488474669989955,2324,4095,4095
6.251535389001219,1968,4010,3849
6.254224811000313,2131,3607,3326
6.256912025000929,2869,4095,4095
6.259599614000763,3047,4095,4095
6.26229007800066,2991,4095,4095
6.264978040999267,2105,3776,3417
6.267681214001641,2473,4095,4095
6.2703827190016455,1854,4095,3481
6.273075724999217,2512,4095,4095
6.275765271999262,2151,4095,4095
6.278456693999033,2290,2550,3178
6.281144574000791,2288,4095,3746
6.283865705001517,2719,4095,4095
6.286581835000106,2480,4095,4095
6.289279466000153,1809,4095,4095
6.291978929999459,1859,4095,4095
6.294676559999061,2043,256,2475
6.297363648998726,2750,4095,4095
6.300056070998835,2288,3361,3226
6.302751367999008,2811,4095,4095
6.305442582000978,2247,4095,4095
6.308133795999311,2397,4095,4095
6.310827968001831,1830,3893,3237
6.313519597999402,2524,4095,4095
6.316212770001584,2511,4095,4095
6.318907859000319,2631,4095,4095
6.32159986500119,2243,2656,3151
6.324292620000051,2062,631,2427
6.326987876000203,2407,4095,4095
6.329678923000756,1766,4095,3734
6.332382969998434,2380,4095,4095
6.3350758500018856,2013,2384,3047
6.3377960639991215,2688,4095,4095
6.3404916530016635,2201,2623,3129
6.343187867001689,2640,4095,4095
6.345882081001037,2346,4095,4095
6.348573503000807,2126,4095,4095
6.351267590998759,2220,4095,4095
6.35396334699908,2424,4095,4095
6.356654268998682,2529,4095,4095
6.3593502750009065,2713,4095,4095
6.362042613000085,2111,4095,4095
6.364734077000321,1917,2279,3081
6.367428623998421,2281,4095,4095
6.370123587999842,1673,4095,3536
6.37281596899993,2317,4095,4095
6.37551134900059,1973,4095,3639
6.3782142710006156,2497,3893,3515
6.380908235001698,2143,3279,3348
6.383602449001046,2554,4095,4095
6.3862970789996325,2338,4095,4095
6.388986625999678,1902,4095,4095
6.391679964999639,1712,2706,3187
6.394372012000531,1891,1535,2589
6.397062767999159,2559,4095,4095
6.3997536480019335,2525,4095,4095
6.402445611998701,2654,4095,4095
6.40513782600101,1885,4095,4095
6.407827622999321,2267,4095,4095
6.410519919998478,1709,4095,3434
6.413209425001696,2389,4095,4095
6.415903305998654,2147,4095,4095
6.4185965200013015,2208,4095,3729
6.42128648400103,2209,4095,3325
6.423979364000843,2115,3994,3769
6.4266715359990485,2404,4095,4095
6.429361708000215,1766,4095,3851
6.4320558389990765,1904,4095,4095
6.434749511001428,2006,871,2693
6.437440891000733,2683,4095,4095
6.440134937998664,2227,3008,3181
6.442826818998583,2686,4095,4095
6.445517365998967,2294,4095,4095
6.448212204999436,2252,4095,4095
6.450904501998593,1739,4006,3303
6.453595173999929,2417,4095,4095
6.4562873050017515,2451,4095,4095
6.458981060000951,2722,4095,4095
6.461671814999136,2150,3216,3168
6.46437277899895,1968,321,2542
6.467148577001353,2325,4095,4095
6.469894832000136,1723,4095,3665
6.472646046000591,2363,4095,4095
6.475371843000175,2037,3519,3404
6.4780653070010885,2804,4095,4095
6.48075277099997,2235,3184,3249
6.483443109998916,2672,4095,4095
6.486132781999913,2442,4095,4095
6.488819911999599,2100,4095,4095
6.49150950100011,1808,2851,3120
6.494198756001424,1981,2760,2918
6.496888679001131,2657,4095,4095
6.499575892001303,2769,4095,4095
6.502262523001264,2825,4095,4095
6.504950444999849,2039,4095,3535
6.5076379499987524,2418,4095,4095
6.510326789000828,1840,4095,3443
6.513015461001487,2504,4095,4095
6.515724674998637,2158,4095,4095
6.518416555998556,2289,3024,3347
6.5211046030017314,2282,4095,3722
6.523793608001142,2689,4095,4095
6.526482863999263,2454,4095,4095
6.529171327001677,1833,4095,4095
6.531862583000475,1834,4095,3905
6.534552213001007,2003,225,2491
6.537238551998598,2669,4095,4095
6.539926099001605,2221,3761,3267
6.542614688001777,2665,4095,4095
6.545302859998628,2055,4095,4095
6.548003782001615,2229,4095,4095
6.550693953999144,1651,4061,3280
6.553380001001642,2314,4095,4095
6.556068590001814,2291,4095,4095
6.558758429000591,2215,4095,4095
6.561446850999346,2074,2692,3041
6.564137731998926,1890,1184,2522
6.5668266950015095,2225,4095,4095
6.569530576001853,1597,4095,3696
6.572232122998685,2195,4095,4095
6.574924712000211,1862,2082,2999
6.577611884000362,2505,4095,4095
6.580302597998525,2080,2896,3147
6.582991269999184,2503,4095,4095
6.585679150000942,2224,4095,4095
6.588366656000289,2057,4095,4095
6.5910589109989814,1625,4095,4095
6.593775207998988,2310,4095,4095
6.596471714001382,2374,4095,4095
6.599160636000306,2594,4095,4095
6.601848308000626,2019,4095,4095
6.604535605001729,1840,1731,2905
6.6072228609991726,2189,4095,4095
6.609910073999345,1594,4095,3647
6.612596455001039,2221,4095,4095
6.615285044001212,1887,3975,3467
6.617973840999184,2583,4095,4095
6.62066155499997,2038,2967,3248
6.623349435001728,2437,4095,4095
6.6260392740005045,2261,4095,4095
6.628729112999281,1991,4095,4095
6.631418200999178,1726,3431,3139
6.634107540001423,1968,3103,3014
6.636795462000009,2800,4095,4095
6.639482218000921,3200,4095,4095
6.642170014998555,3504,4095,4095
6.644857145001879,2768,3974,3539
6.647544276002009,3713,4095,4095
6.650232281001081,3120,4095,3493
6.652918578001845,4095,4095,4095
6.655605750001996,4095,4095,3888
6.658298089001619,4095,2704,3237
6.660988595001982,4095,4095,3466
6.663679809000314,4095,4095,4095
6.666369146998477,3819,4095,4095
6.6690718610007025,2343,4095,4095
6.6717740329986555,1690,3929,3679
6.6744664139987435,1509,215,2437
6.677155085999402,1872,4095,4095
6.67984588300169,1295,3959,3334
6.682536554999388,1615,4095,4095
6.685223601998587,964,4095,4095
6.68791360799878,1200,4095,4095
6.690603863000433,671,4095,3280
6.693291119001515,1403,4095,4095
6.695979707001243,1447,4095,4095
6.6986672960010765,1408,4095,4095
6.701354717999493,1513,2719,3036
6.704041723998671,1456,1728,2637
6.706728271001339,1914,4095,4095
6.709415860001172,1398,4095,3748
6.71210573999997,2101,4095,4095
6.714795078998577,1833,1787,2943
6.717482708998432,2525,4095,4095
6.720174965001206,2110,3005,3173
6.722864636998565,2559,4095,4095
6.725551308998547,2275,4095,4095
6.728238773001067,2146,4095,4095
6.730925694999314,1695,4095,4095
6.733611824998661,2390,4095,4095
6.736300622000272,2473,4095,4095
6.7389888360012264,2753,4095,4095
6.74167529999977,2130,3748,3302
6.744364180998673,1968,934,2734
6.747053810999205,2329,4095,4095
6.749768649999169,1723,4095,3716
6.752461739000864,2357,4095,4095
6.755153286001587,2032,3443,3370
6.757843540999602,2798,4095,4095
6.760530755000218,2237,2978,3229
6.763221260000137,2672,4095,4095
6.76591047400143,2432,4095,4095
6.768610813000123,2151,4095,4095
6.771316401998774,2047,4095,4095
6.774008781998418,1989,4095,3857
6.776696537999669,2656,4095,4095
6.779386459998932,2768,4095,4095
6.7820761740003945,2916,4095,4095
6.784765762000461,2032,3403,3408
6.787458143000549,2411,4095,4095
6.790148356998543,1828,4095,3522
6.79283669600045,2499,4095,4095
6.795527909001976,2159,4095,4095
6.798216122999293,2308,2513,3174
6.800903211998957,2324,3670,3491
6.803590800998791,2768,4095,4095
6.806278723001014,2544,4095,4095
6.808967728000425,2006,4095,4095
6.8116579839988844,1930,3395,3470
6.814348905998486,2127,400,2445
6.817038119999779,2864,4095,4095
6.819729292001284,2387,4095,4095
6.8224186719999125,2951,4095,4095
6.825102843999048,2125,4095,4095
6.827791807998437,2505,4095,4095
6.8304843549994985,1920,4095,3378
6.833172277001722,2613,4095,4095
6.835861365998426,2512,4095,4095
6.838550788001157,2384,4095,4095
6.84123937700133,2370,3107,3049
6.843928341000719,2197,2417,2782
6.846617805000278,2547,4095,4095
6.849305226998695,1891,4095,3791
6.8519948159992055,2454,4095,4095
6.854683487999864,2128,1473,2853
6.857370159999846,2817,4095,4095
6.8600588320005045,2331,2909,3215
6.862747670998942,2801,4095,4095
6.865433425999072,2429,4095,4095
6.868125223001698,2318,4095,4095
6.8708471870013454,1813,4095,4095
6.873539233998599,2501,4095,4095
6.8762284479998925,2583,4095,4095
6.878916577999917,2855,4095,4095
6.881608501000301,2202,3715,3262
6.884303339000326,2011,879,2699
6.886993511001492,2362,4095,4095
6.889682683999126,1750,4095,3775
6.892401606000931,2378,4095,4095
6.8950964030009345,2032,3364,3369
6.897814907999418,2800,4095,4095
6.900503706001473,2236,2832,3216
6.903191502999107,2659,4095,4095
6.905878050001775,2409,4095,4095
6.908566721998795,2090,4095,4095
6.911255186001654,1971,4095,3841
6.9139475250012765,1935,4050,3861
6.916637072001322,2589,4095,4095
6.919328701998893,2654,4095,4095
6.922025957999722,2702,4095,4095
6.924714713000867,1919,3517,3431
6.927404802001547,2271,4095,4095
6.93009439099842,1680,4095,3488
6.932780521001405,2320,4095,4095
6.9354699430004985,1974,4095,3837
6.938159364999592,2113,2458,3184
6.940846329001943,2112,4095,3410
6.943539334999514,2493,4095,4095
6.946228881999559,2286,4095,4095
6.94891546999861,1771,4095,4095
6.951624059001915,1669,3680,3487
6.954317147999973,1850,367,2434
6.957004194999172,2503,4095,4095
6.959696616999281,2106,4095,4095
6.962386331000744,2559,4095,4095
6.9650740870019945,1826,4095,4095
6.96776250900075,2176,4095,4095
6.970460971999273,1617,4095,3417
6.973148395001772,2288,4095,4095
6.975839024999004,2217,4095,4095
6.978533031000552,2093,4095,4095
6.981223078000767,2078,3215,3030
6.983914083000855,1904,1910,2688
6.986604713998531,2244,4095,4095
6.989292510999803,1616,4095,3728
6.991981641000166,2219,4095,4095
6.994672813001671,1869,1585,2865
6.997361860001547,2513,4095,4095
7.000050198999816,2095,2831,3199
7.00273891300094,2516,4095,4095
7.005427085001429,2191,4095,4095
7.008116798999254,2082,4095,4095
7.010805470999912,1611,4095,4095
7.0135460599994985,2292,4095,4095
7.016265689999273,2353,4095,4095
7.01895786300156,2598,4095,4095
7.021646493001754,2027,4095,3535
7.024337915001524,1839,1324,2823
7.027028545999201,2182,4095,4095
7.029716801000177,1583,4095,3649
7.032448306999868,2199,4095,4095
7.035140269999829,1871,3789,3454
7.037831566998648,2584,4095,4095
7.040522655999666,2053,3082,3267
7.04321562000041,2443,4095,4095
7.045906167000794,2239,4095,4095
7.048596339001961,1904,4095,4095
7.051293970002007,1603,3301,3137
7.053989517000446,1775,2899,2982
7.056678647000808,2416,4095,4095
7.05936906900024,2477,4095,4095
7.062060200001724,2524,4095,4095
7.0647475799996755,1805,4095,3600
7.067439294001815,2176,4095,4095
7.070137800001248,1616,4095,3488
7.072855389000324,2278,4095,4095
7.075550352001301,1954,4095,4095
7.078242357998533,2096,3292,3414
7.080928237999615,2108,4095,3746
7.083622368998476,2497,4095,4095
7.086316790999263,2293,4095,4095
7.089006879999943,1693,4095,4095
7.091696718001913,1717,4095,4095
7.09438684899942,1919,263,2519
7.097081479001645,2594,4095,4095
7.099799734998669,2187,3798,3210
7.102549282000837,2647,4095,4095
7.105275704001542,2219,4095,4095
7.1079751680008485,2228,4095,4095
7.110669214998779,1697,4080,3364
7.11336042900075,2371,4095,4095
7.116050893000647,2432,4095,4095
7.118744606999826,2649,4095,4095
7.121434904001944,2113,3071,3194
7.124126575999981,1918,272,2533
7.126820247998694,2254,4095,4095
7.129511294999247,1629,4095,3705
7.132202592001704,2233,4095,4095
7.1348966810001,1880,2894,3178
7.137590103000548,2513,4095,4095
7.140281984000467,2038,2929,3168
7.1429741969986935,2427,4095,4095
7.145665244999691,2167,4095,4095
7.148357000001852,1921,4095,4095
7.151049672000227,1976,4095,4095
7.1537374690014985,2227,4095,4095
7.156468891000259,2345,4095,4095
7.159161980001954,2459,4095,4095
7.161853526999039,2325,4095,4095
7.164542532998894,1732,2982,3257
7.167232537998643,2078,4095,4095
7.169934626999748,1488,4095,3574
7.1726262160009355,2139,4095,4095
7.175318055000389,1808,4095,3829
7.178007434999017,1959,2430,3025
7.180697191000945,1963,4095,3443
7.183397987999342,2347,4095,4095
7.186091535000742,2139,4095,4095
7.1887812899985875,1712,4095,4095
7.191472336999141,1535,3273,3375
7.194163385000138,1730,686,2479
7.196851598000649,2384,4095,4095
7.199541104000673,2224,4095,4095
7.202229318001628,2449,4095,4095
7.204917448001652,1718,4095,4095
7.207605244999286,2077,4095,4095
7.210293626001658,1490,4095,3417
7.21298163100073,2125,4095,4095
7.215672261998407,1961,4095,4095
7.218360309001582,1941,4095,4095
7.221047563998582,1962,3665,3141
7.223736528001609,1841,3274,3063
7.226425492000999,2240,4095,4095
7.22911287199895,1703,4095,4095
7.231801294001343,2300,4095,4095
7.2344921750009235,2298,1081,2751
7.2371807630006515,3405,4095,4095
7.239871394001966,3046,2775,3167
7.242562191000616,4095,4095,4095
7.24525240499861,4095,4095,4095
7.247941410001658,4095,4095,4095
7.2506304570015345,3728,4095,3429
7.253318295999634,4095,4095,4095
7.2560069680002925,4095,4095,4095
7.258694848998857,4095,4095,4095
7.261383229000785,2797,3107,3056
7.264072609999857,1971,351,2522
7.266764031999628,1787,4095,4095
7.269454204000795,817,4095,3698
7.272147543000756,1223,4095,4095
7.274881882000045,797,2800,3207
7.277574470001127,1436,4095,4095
7.280266975998529,1033,2949,3109
7.282957356001134,1489,4095,4095
7.28564586200082,1346,4095,4095
7.288334909000696,1171,4095,4095
7.291025081001862,1427,4095,4095
7.293713087001379,1743,4095,4095
7.296445550000499,2041,4095,4095
7.299141806000989,2291,4095,4095
7.301832477998687,2305,4095,4095
7.304519732999324,1749,3021,3312
7.307209947000956,2141,4095,4095
7.309898785999394,1575,4095,3566
7.312586125000962,2224,4095,4095
7.315273129999696,1905,4095,3799
7.3179645519994665,2064,2413,3042
7.320651766000083,2089,3943,3443
7.323343146999832,2491,4095,4095
7.326033568999264,2295,4095,4095
7.328724032999162,1917,4095,4095
7.331415579999884,1706,3085,3344
7.3341046269997605,1893,828,2480
7.336788174001413,2559,4095,4095
7.339486595999915,2464,4095,4095
7.342184476001421,2650,4095,4095
7.344871440000134,1904,4095,4095
7.347559320998698,2282,4095,4095
7.350247201000457,1718,4095,3440
7.352934373000608,2391,4095,4095
7.355623379000463,2211,4095,4095
7.358311258998583,2207,4095,4095
7.361000472999876,2203,3856,3205
7.363692686998547,2034,3155,3008
7.366380526000285,2387,4095,4095
7.369067739000457,1762,4095,4095
7.371760161000566,2226,4095,4095
7.37445037499856,2033,1085,2757
7.377137964002031,2752,4095,4095
7.379826719999983,2285,2974,3166
7.38251580799988,2774,4095,4095
7.385201896999206,2394,4095,4095
7.387889236000774,2354,4095,4095
7.39057828300065,1849,4095,3374
7.3932667469998705,2549,4095,4095
7.395958585999324,2615,4095,4095
7.3986528829991585,2934,4095,4095
7.401341429998865,2314,3264,3217
7.404027852000581,2147,383,2539
7.406715607001388,2511,4095,4095
7.4094033209985355,1888,4095,3719
7.412090617999638,2528,4095,4095
7.4147781649990065,2190,2751,3173
7.417465463000553,2951,4095,4095
7.420153676001064,2402,2640,3163
7.422840848001215,2915,4095,4095
7.425527979001345,2621,4095,4095
7.428220108999085,2363,4095,4095
7.430909614999109,2439,4095,4095
7.433597661998647,2692,4095,4095
7.436285709001822,2832,4095,4095
7.438974838998547,3095,4095,4095
7.441662469998846,2448,4095,4095
7.444352642000013,2165,2495,3120
7.447041105999233,2521,4095,4095
7.4497294450011395,1903,4095,3626
7.452452699999412,2542,4095,4095
7.455142997001531,2190,4095,3679
7.457834627999546,2491,3305,3518
7.460524717000226,2337,3433,3230
7.463215430001583,2768,4095,4095
7.465903519001586,2515,4095,4095
7.468591608001589,2076,4095,4095
7.471283363000111,1849,2704,3200
7.473973994001426,2015,1508,2614
7.47668987400175,2704,4095,4095
7.479381545999786,2682,4095,4095
7.4820721770011005,2760,4095,4095
7.484759266000765,1972,4095,4095
7.487446312999964,2339,4095,4095
7.490138234999904,1759,4095,3455
7.4928267399991455,2417,4095,4095
7.495516538001539,2224,4095,4095
7.498205709998729,2208,4095,3834
7.500894132001122,2192,4095,3235
7.503580636999686,2274,4095,3890
7.506266850999964,2353,4095,4095
7.508954314998846,1731,4095,4095
7.5116439039993566,1757,4095,4095
7.5143317010006285,1936,738,2658
7.517018873000779,2597,4095,4095
7.519707211999048,2163,3104,3237
7.522394717001589,2607,4095,4095
7.525082639000175,2207,4095,4095
7.52777218600022,2202,4095,4095
7.530459691999567,1648,4095,3290
7.533147114001622,2320,4095,4095
7.535835703001794,2352,4095,4095
7.5385260000002745,2527,4095,4095
7.541211755000404,2065,2915,3067
7.543900176999159,1883,328,2437
7.54658976599967,2226,4095,4095
7.5492763129987,1611,4095,3829
7.5519665270003316,2214,4095,4095
7.554659491001075,1881,2473,3101
7.557347329999175,2539,4095,4095
7.560035959999368,2098,2675,3160
7.562725632000365,2519,4095,4095
7.565412595999078,2249,4095,4095
7.568101393000688,2044,4095,4095
7.570797190001031,2052,4095,4095
7.573488654001267,2334,4095,4095
7.576179783998668,2442,4095,4095
7.578870165001717,2643,4095,4095
7.581557837002038,2055,4095,4095
7.584247050999693,1862,2093,3023
7.58693693099849,2220,4095,4095
7.589627687000757,1616,4095,3613
7.592316401001881,2252,4095,4095
7.59500640600163,1918,4095,3523
7.597695702999772,2638,4095,4095
7.600431209000817,2097,2928,3264
7.603125089000969,2494,4095,4095
7.60584376100087,2279,4095,4095
7.608534683000471,1913,4095,4095
7.611223563999374,1643,2626,3168
7.613911527998425,1823,1703,2687
7.616600240999105,2479,4095,4095
7.619294121999701,2478,4095,4095
7.621984085999429,2559,4095,4095
7.624671298999601,1822,4095,3872
7.6273598879997735,2172,4095,4095
7.630049934999988,1600,4095,3462
7.632736565999949,2257,4095,4095
7.635426112999994,1968,4095,4095
7.6381147430001874,2071,3765,3538
7.640802541001904,2070,4095,3423
7.6434912539989455,2355,4095,4095
7.646181842999795,2239,4095,4095
7.648869099000876,1713,4095,4095
7.651560395999695,1661,4095,4095
7.6542481090000365,1850,495,2603
7.656935989998601,2526,4095,4095
7.659626161999768,2122,3549,3183
7.662316542999179,2559,4095,4095
7.665005506001762,2197,4095,4095
7.667696136999439,2229,4095,4095
7.670384017001197,1683,4095,3357
7.673077480998472,2366,4095,4095
7.675768361001246,2419,4095,4095
7.678491408998525,2559,4095,4095
7.68118441399929,2138,2688,3057
7.683875919999991,1968,336,2454
7.686565508000058,2321,4095,4095
7.689252347001457,1712,4095,3798
7.691941060998943,2336,4095,4095
7.69462910799848,1999,2523,3111
7.698191114999645,2679,4095,4095
7.700898245999269,2222,2915,3200
7.703590876000817,2020,3455,3063
7.7062792149990855,2305,4095,4095
7.708968012000696,1783,4095,4095
7.711655226001312,2150,4095,4095
7.71434248100195,1950,1121,2765
7.717030487001466,2624,4095,4095
7.719723616999545,2171,2810,3180
7.7224128730013035,2606,4095,4095
7.725100211999234,2224,4095,4095
7.727789467000548,2160,4095,4095
7.730479056001059,1622,4095,3473
7.733167145001062,2288,4095,4095
7.735856358001911,2335,4095,4095
7.738543654999376,2534,4095,4095
7.74123053600124,2009,3120,3186
7.743917583000439,1831,258,2501
7.746608921999723,2169,4095,4095
7.749297302001651,1535,4095,3831
7.751986349001527,2160,4095,4095
7.754673980001826,1823,2814,3203
7.757359985000221,2480,4095,4095
7.760049032000097,2032,2645,3167
7.762737205001031,2439,4095,4095
7.765423377000843,2199,4095,4095
7.76811263199852,1973,4095,4095
7.770799928999622,2062,4095,4095
7.7734917259986105,2257,4095,4095
7.776180232001934,2367,4095,4095
7.778870112000732,2543,4095,4095
7.781559076000121,1985,4095,4095
7.784247622999828,1798,2467,3154
7.786936837001122,2144,4095,4095
7.789623675998882,1535,4095,3623
7.792312431000028,2183,4095,4095
7.79501085299853,1861,4095,3621
7.797699441998702,2395,4095,3675
7.800426656001946,2032,3312,3312
7.803116327999305,2413,4095,4095
7.805825750001532,2192,4095,4095
7.808516047000012,1807,4095,4095
7.811204303001432,1555,2742,3217
7.813891392001096,1759,1447,2614
7.816578813999513,2463,4095,4095
7.819270486001187,2474,4095,4095
7.821960782999668,2689,4095,4095
7.824648829999205,2037,4095,4095
7.827338086000964,2587,4095,4095
7.83002713300084,2212,4095,3479
7.832713013001921,3415,4095,4095
7.8354037270000845,3246,4095,4095
7.83809164899867,3670,4095,3683
7.840779237998504,4095,4095,3279
7.8434686600012355,4095,4095,4095
7.846158790001937,4095,4095,4095
7.848846171000332,4095,4095,4095
7.851534385001287,3334,4095,4095
7.854222722999111,2880,707,2621
7.856910979000531,3110,4095,4095
7.8595997340016766,1924,3130,3178
7.862288573000114,1940,4095,4095
7.8649751619996096,1298,4095,4095
7.867662917000416,1199,4095,4095
7.870350965000398,604,4095,3338
7.873045719999936,1297,4095,4095
7.875738474998798,1392,4095,4095
7.878427480998653,1657,4095,4095
7.881142860998807,1313,2847,3111
7.883859116998792,1246,400,2453
7.886559122001927,1701,4095,4095
7.889254128000175,1213,4095,3843
7.891949092001596,1946,4095,4095
7.894644889001938,1735,2816,3204
7.89733531100137,2493,4095,4095
7.900029399999767,2083,2928,3146
7.902723863000574,2526,4095,4095
7.905416161000176,2309,4095,4095
7.908109790998424,2067,4095,4095
7.910801463000098,2176,4095,4095
7.913492884999869,2378,4095,4095
7.916188391001924,2502,4095,4095
7.918881771001907,2641,4095,4095
7.921572859999287,2483,4095,4095
7.92426257400075,1931,2890,3223
7.926951995999843,2288,4095,4095
7.929641417998937,1700,4095,3613
7.932334424000146,2346,4095,4095
7.9350288870009535,2021,4095,3733
7.9377221840004495,2186,2749,2967
7.940446190001239,2209,3536,3412
7.943140362000122,2627,4095,4095
7.9458339090015215,2407,4095,4095
7.948525580999558,2058,4095,4095
7.951218045000132,1801,3182,3343
7.95391146700058,1991,903,2512
7.956601639001747,2707,4095,4095
7.959295644999656,2352,4095,4095
7.961989941999491,2789,4095,4095
7.96468053100034,2001,4095,4095
7.967372285998863,2384,4095,4095
7.970066375000897,1810,4095,3431
7.972802214000694,2498,4095,4095
7.9755112189996,2384,4095,4095
7.978207642001507,2309,4095,4095
7.980900771999586,2307,2831,3082
7.9835981110009016,2148,2090,2746
7.986292740999488,2502,4095,4095
7.988984204999724,1872,4095,4095
7.9916798359990935,2493,4095,4095
7.994374466001318,2150,1712,2901
7.997063596998487,2907,4095,4095
7.999756310000521,2394,2648,3150
8.002450981999573,2925,4095,4095
8.005143320999196,2581,4095,4095
8.007834367999749,2448,4095,4095
8.01052666599935,1953,4095,4095
8.01321779600039,2687,4095,4095
8.015959052001563,2803,4095,4095
8.018688014999498,3246,4095,4095
8.021380104000855,2389,4095,4095
8.02407398500145,2202,1755,2935
8.026769489999424,2559,4095,4095
8.029458995999448,1936,4095,3683
8.032153043001017,2559,4095,4095
8.034846881000703,2225,3906,3502
8.037539053999353,3102,4095,4095
8.040235183998448,2396,2786,3216
8.042930064999382,2863,4095,4095
8.045619486998476,2598,4095,4095
8.048312242000975,2247,4095,4095
8.05100437299916,1905,2782,3125
8.053694670001278,2073,2606,2880
8.056415842002025,2777,4095,4095
8.05911338900114,2839,4095,4095
8.061830520000512,2862,4095,4095
8.06452394200096,2037,4095,3798
8.06721473899961,2391,4095,4095
8.069903953000903,1803,4095,3493
8.07260708299873,2457,4095,4095
8.075301630000467,2151,4095,4095
8.077999386001466,2243,3667,3515
8.080691349001427,2247,4095,3433
8.083385937999992,2469,4095,4095
8.08608127700063,2406,4095,4095
8.088773407998815,1869,4095,4095
8.09146832999977,1813,4095,4095
8.09416258499914,1984,738,2649
8.096859466000751,2691,4095,4095
8.099556304001453,2234,3110,3227
8.102252935001161,2694,4095,4095
8.104996357000346,2301,4095,4095
8.109363783001754,2251,4095,4095
8.11206237100123,2325,4095,4095
8.114754835001804,1985,3616,3419
8.117446091000602,2713,4095,4095
8.120134470998892,2156,3044,3219
8.12282526800118,2555,4095,4095
8.125511982001626,2330,4095,4095
8.128201278999768,2032,4095,4095
8.130890742999327,1803,3647,3830
8.133577331998822,1840,4095,3895
8.136265586999798,2496,4095,4095
8.138955092999822,2559,4095,4095
8.141646681000566,2608,4095,4095
8.144338979000167,1859,3524,3444
8.147025941998436,2209,4095,4095
8.149710780999158,1620,4095,3538
8.152438577999419,2269,4095,4095
8.155128375001368,1947,4095,3853
8.157844589000888,2099,2671,3236
8.160534220001864,2109,3843,3583
8.163225391999731,2485,4095,4095
8.165916396999819,2282,4095,4095
8.16860252799961,1789,4095,4095
8.171291574999486,1680,4095,3871
8.173994538999978,1867,309,2439
8.17669329400087,2559,4095,4095
8.179385341001762,2134,3635,3248
8.18207530500149,2554,4095,4095
8.184763352001028,2082,4095,4095
8.187452607999148,2202,4095,4095
8.190141363000293,1643,4095,3457
8.19282778500201,2315,4095,4095
8.195516498999496,2338,4095,4095
8.198204796000937,2162,4095,4095
8.200891843000136,2106,2749,3071
8.203581474001112,1923,1444,2589
8.206273396001052,2255,4095,4095
8.208963401000801,1618,4095,3845
8.211651197998435,2220,4095,4095
8.214339079000638,1881,1947,2982
8.217024751000281,2559,4095,4095
8.219712965001236,2110,2926,3204
8.222403470001154,2553,4095,4095
8.225090808999084,2258,4095,4095
8.2277788149986,2119,4095,4095
8.230466152999725,1639,4095,4095
8.233151699998416,2326,4095,4095
8.235839330998715,2405,4095,4095
8.238528419999056,2647,4095,4095
8.241215966998425,2064,4095,3361
8.24390451400177,1874,1022,2736
8.246592936000525,2217,4095,4095
8.249279316001775,1611,4095,3826
8.251967322001292,2243,4095,4095
8.254655286000343,1920,3248,3312
8.25734191599986,2673,4095,4095
8.260030255001766,2146,2559,3153
8.262719926999125,2559,4095,4095
8.26540764099991,2354,4095,4095
8.268095355000696,2079,4095,4095
8.270786692999536,2069,4095,4095
8.273487324000598,2288,4095,4095
8.276183579000644,2559,4095,4095
8.278876085001684,2678,4095,4095
8.281565174002026,2717,4095,4095
8.28425430399875,1957,3376,3405
8.286942310001905,2322,4095,4095
8.289629189999687,1732,4095,3612
8.292317404000642,2380,4095,4095
8.29500495100001,2057,4095,3855
8.29769099799887,2206,2191,3102
8.30042087900074,2221,3660,3328
8.303115342001547,2617,4095,4095
8.305830473000242,2391,4095,4095
8.308520728001895,1913,4095,4095
8.31121123399862,1757,3761,3666
8.31389811400004,1927,330,2419
8.316588035999303,2603,4095,4095
8.319274207999115,2171,4095,3314
8.321963589001825,2638,4095,4095
8.324651178001659,1845,4095,4095
8.327338891002,2177,4095,4095
8.330026980002003,1593,4095,3419
8.332713986001181,2240,4095,4095
8.33540157400057,2103,4095,4095
8.3380889129985,2032,4095,4095
8.340777043998969,2015,3146,3006
8.343467507998866,1842,2361,2798
8.346157012998447,2165,4095,4095
8.348843560001114,1535,4095,4095
8.351530316002027,2128,4095,4095
8.354219113,1799,1478,2843
8.356904700998712,2460,4095,4095
8.359592707001866,2033,2642,3159
8.362279420998675,2460,4095,4095
8.364964843000052,2155,4095,4095
8.367651014999865,2064,4095,4095
8.370338895001623,1535,4095,4095
8.373027191999427,2230,4095,4095
8.37572519799869,2298,4095,4095
8.378416078001464,2559,4095,4095
8.381104833999416,1995,3678,3220
8.383792048000032,1817,617,2627
8.386478386000817,2160,4095,4095
8.389164934000291,1535,4095,3829
8.391852731001563,2170,4095,4095
8.394540027999028,1855,2959,3247
8.397225282998988,2544,4095,4095
8.399913164001191,2017,2859,3200
8.40259971100022,2407,4095,4095
8.405288008001662,2176,4095,4095
8.4079768470001,1949,4095,4095
8.410662559999764,2041,4095,4095
8.41334864899909,2321,4095,4095
8.416035405000002,2513,4095,4095
8.41872103499918,2799,4095,4095
8.421407082001679,2688,4095,4095
8.42409375400166,2377,2531,3184
8.426778927001578,3267,4095,4095
8.429464764998556,2640,4095,3675
8.432153353998729,3969,4095,4095
8.434839984998689,3701,4095,3673
8.437528532002034,4095,3408,3554
8.440218412000831,4095,3438,3338
8.4429065430013,4095,4095,4095
8.445592256000964,4095,4095,4095
8.448280303000502,3248,4095,4095
8.450967434000631,2165,2757,3173
8.453653648000909,1747,1917,2717
8.456340986002033,1965,4095,4095
8.459029450001253,1719,4095,4095
8.461714706001658,1634,4095,4095
8.464439420000417,837,4095,3842
8.467129299999215,1187,4095,4095
8.469839430999855,640,4095,3467
8.472528435999266,1360,4095,4095
8.475258192000183,1200,4095,4095
8.477979822000634,1398,4095,3789
8.480753369000013,1520,3861,3234
8.483475458000612,1473,2960,2933
8.486168129998987,1915,4095,4095
8.488855094001337,1414,4095,4095
8.49154255800022,2099,4095,4095
8.494231813001534,1827,1776,2921
8.496917776999908,2541,4095,4095
8.499609032998706,2111,3054,3152
8.502301620999788,2551,4095,4095
8.504990418001398,2255,4095,4095
8.50767979900047,2135,4095,4095
8.510368554001616,1657,4095,4095
8.51305530999889,2352,4095,4095
8.515742232000775,2448,4095,4095
8.51842986200063,2736,4095,4095
8.521117325999512,2133,4073,3405
8.523806457000319,1959,908,2719
8.526495919999434,2309,4095,4095
8.529183883998485,1700,4095,3830
8.53187434800202,2325,4095,4095
8.534563395001896,2000,3199,3303
8.537250191999192,2759,4095,4095
8.539940406000824,2221,2911,3185
8.542628453000361,2662,4095,4095
8.545315874998778,2431,4095,4095
8.548003631000029,2175,4095,4095
8.550693803001195,2201,4095,4095
8.553381682999316,2370,4095,4095
8.556071355000313,2640,4095,4095
8.558761235999555,2806,4095,4095
8.56144865800161,2759,4095,4095
8.564137080000364,2032,3271,3344
8.5668277520017,2400,4095,4095
8.569517048999842,1809,4095,3632
8.57220684600179,2467,4095,4095
8.57491343500078,2142,4095,3784
8.577611024000362,2304,2318,3082
8.580303154998546,2326,4095,3440
8.582992326999374,2775,4095,4095
8.58568108200052,2544,4095,4095
8.58837017100086,2191,4095,4095
8.59106555100152,1920,3374,3445
8.593779639999411,2113,768,2480
8.596470271000726,2879,4095,4095
8.599161276000814,2384,4095,4095
8.60185144800198,2973,4095,4095
8.604537328999868,2132,4095,4095
8.607225168001605,2503,4095,4095
8.6099119649989,1924,4095,3481
8.612598302999686,2624,4095,4095
8.615285642001254,2541,4095,4095
8.617972980999184,2407,4095,4095
8.620658986001217,2395,2970,3088
8.623344575000374,2225,2719,2867
8.626035496999975,2559,4095,4095
8.628723669000465,1969,4095,4095
8.631413592000172,2447,4095,4095
8.634101389001444,2143,1232,2799
8.636786977000156,2896,4095,4095
8.639476025000477,2366,2683,3164
8.642165655001008,2865,4095,4095
8.64485249399877,2458,4095,4095
8.647540623998793,2369,4095,4095
8.65022846300053,1838,4095,4095
8.652914051999687,2518,4095,4095
8.655602973998612,2587,4095,4095
8.65829247900183,2852,4095,4095
8.66098044300088,2239,3394,3267
8.663670656998875,2045,458,2559
8.666357370999322,2387,4095,4095
8.669043335001334,1758,4095,3883
8.671731757000089,2373,4095,4095
8.674434011998528,2034,2851,3212
8.677133725999738,2742,4095,4095
8.679822730999149,2240,2583,3146
8.682511236998835,2676,4095,4095
8.685198533999937,2425,4095,4095
8.68788662299994,2174,4095,4095
8.690578836998611,2215,4095,4095
8.69326854999963,2453,4095,4095
8.695959513999696,2585,4095,4095
8.698648977999255,2718,4095,4095
8.701336733000062,2543,4095,4095
8.704027864001546,1939,2740,3206
8.706718828001613,2287,4095,4095
8.709407250000368,1677,4095,3679
8.712095129998488,2301,4095,4095
8.71478371899866,1946,4095,3711
8.717471266001667,2112,3006,3553
8.720161522000126,2125,3728,3359
8.722849568999663,2513,4095,4095
8.725539990999096,2289,4095,4095
8.728229954998824,1964,4095,4095
8.73091954299889,1658,2800,3251
8.733605841000099,1840,1600,2640
8.736294221002026,2535,4095,4095
8.738983434999682,2527,4095,4095
8.741668106998986,2585,4095,4095
8.744355071001337,1839,4095,4095
8.74704178400134,2192,4095,4095
8.749727747999714,1615,4095,3583
8.75245417000042,2270,4095,4095
8.755145218001417,2037,4095,4095
8.75783626500197,2106,4095,3680
8.760525187000894,2094,4095,3325
8.763212734000263,2129,4095,3881
8.76590048900107,2256,4095,4095
8.768585578000057,1775,4095,4095
8.771273124999425,1877,4095,4095
8.773961255999893,1863,721,2626
8.77670559499893,2547,4095,4095
8.779403642001853,2120,2818,3181
8.78209560599862,2559,4095,4095
8.784785361000104,2215,4095,4095
8.787475240998901,2169,4095,4095
8.790166621998651,1623,4095,3707
8.792854835999606,2299,4095,4095
8.795545008000772,2366,4095,4095
8.798232387998723,2645,4095,4095
8.800922685000842,2077,3323,3199
8.803611482999258,1893,330,2525
8.806300863001525,2230,4095,4095
8.808987784999772,1607,4095,3890
8.811677124002017,2218,4095,4095
8.814364462999947,1887,2748,3186
8.817051134999929,2559,4095,4095
8.819741056999192,2109,2645,3167
8.822430978998455,2521,4095,4095
8.825118609998754,2281,4095,4095
8.827809114998672,2061,4095,4095
8.83049991200096,2107,4095,4095
8.833185043000412,2309,4095,4095
8.835872215000563,2431,4095,4095
8.83856067799934,2627,4095,4095
8.84124914199856,2090,4095,4095
8.843937064000784,1853,2398,3157
8.846625736001442,2208,4095,4095
8.849325617000432,1614,4095,3709
8.852020788999653,2247,4095,4095
8.85471529500137,1904,4095,3637
8.857405258000654,2389,3354,3541
8.860094554998796,2074,3559,3307
8.862783478001802,2476,4095,4095
8.865470900000219,2255,4095,4095
8.86815728000147,1927,4095,4095
8.870846244000859,1610,2638,3143
8.873532499001158,1795,1900,2672
8.876237004998984,2480,4095,4095
8.878938468998967,2527,4095,4095
8.88166639100018,2639,4095,4095
8.884363730001496,1899,4095,4095
8.887057734998962,2281,4095,4095
8.889778906999709,1717,4095,3487
8.892471038001531,2398,4095,4095
8.895161918000667,2229,4095,4095
8.897852173999127,2210,4095,4095
8.900539596001181,2197,3841,3117
8.903226934999111,2019,3031,2987
8.905915773000743,2347,4095,4095
8.908603321000555,1775,4095,4095
8.911290742998972,2130,4095,4095
8.913977790001809,1931,968,2708
8.91666496200196,2606,4095,4095
8.91935334200025,2145,2800,3195
8.922040805999131,2559,4095,4095
8.924729145001038,2195,4095,4095
8.927415359001316,2151,4095,4095
8.9301053220006,1597,4095,3408
8.932792327999778,2269,4095,4095
8.935480500000267,2321,4095,4095
8.938168046999635,2583,4095,4095
8.940855677999934,2038,3071,3088
8.943545599999197,1856,295,2487
8.94623339700047,2193,4095,4095
8.948922569001297,1575,4095,3983
8.951613408000412,2183,4095,4095
8.954304662998766,1856,2750,3191
8.956990627000778,2534,4095,4095
8.959679591000167,2082,2718,3177
8.96237034600199,2497,4095,4095
8.965057768000406,2259,4095,4095
8.967746106998675,2061,4095,4095
8.970432903999608,2114,4095,4095
8.973120409998955,2306,4095,4095
8.975827832000505,2435,4095,4095
8.978532086999621,2622,4095,4095
8.981226551000873,2157,4095,4095
8.983919015001447,1858,2416,3151
8.986608728999272,2209,4095,4095
8.989297151001665,1605,4095,3729
8.991986780998559,2226,4095,4095
8.994675537000148,1883,4095,3646
8.997362541998882,2348,3749,3564
9.000050172999181,2054,3573,3351
9.002737678001722,2467,4095,4095
9.005424516999483,2290,4095,4095
9.008113938998576,2010,4095,4095
9.01080481900135,1761,2586,3163
9.013494449998689,2054,2047,2752
9.016238580999925,3119,4095,4095
9.01895587800027,3263,4095,4095
9.021644550000929,3783,4095,4095
9.024331513999641,2997,4095,4095
9.027018977001717,4095,4095,4095
9.029706608002016,3418,4095,3533
9.032437613001093,4095,4095,4095
9.035127368999383,4095,4095,4095
9.037841748999199,4095,4095,4095
9.040532046001317,4069,3831,3212
9.043222385000263,3071,2850,2891
9.045914391001133,2895,4095,4095
9.048602728998958,1746,4095,4095
9.051292651998665,1772,4095,4095
9.053981532000762,1266,1124,2746
9.056668412998988,1777,4095,4095
9.059357710000768,1285,2972,3198
9.062047673000052,1686,4095,4095
9.06473451200145,1388,4095,4095
9.067423308999423,1348,4095,4095
9.070120606000273,880,4095,4095
9.07280890399852,1659,4095,4095
9.07551278399842,1845,4095,4095
9.078213914999651,2195,4095,4095
9.080904336999083,1798,3495,3216
9.083595799998875,1728,555,2609
9.086284056000295,2157,4095,4095
9.08897281100144,1610,4095,3887
9.09166185900176,2265,4095,4095
9.094350906001637,1963,2993,3248
9.097037411000201,2731,4095,4095
9.099725457999739,2202,2559,3157
9.10241667200171,2643,4095,4095
9.105104385998857,2399,4095,4095
9.10779280800125,2171,4095,4095
9.110484521999751,2235,4095,4095
9.113197818998742,2453,4095,4095
9.115926073998708,2615,4095,4095
9.118620705001376,2762,4095,4095
9.12131125200176,2745,4095,4095
9.123999548999564,2007,3210,3370
9.126686013001745,2374,4095,4095
9.129373684998427,1779,4095,3662
9.132064356999763,2427,4095,4095
9.134752571000718,2106,4095,3789
9.137439743000868,2258,2390,3102
9.140130122999835,2283,3783,3491
9.142820003999077,2723,4095,4095
9.145507675999397,2497,4095,4095
9.148197473001346,2157,4095,4095
9.150889395001286,1872,3193,3341
9.153578026001924,2055,945,2496
9.156265322999388,2794,4095,4095
9.158955162001803,2485,4095,4095
9.161643167000875,2887,4095,4095
9.164332298001682,2078,4095,4095
9.167021427998407,2451,4095,4095
9.1697090580019,1873,4095,3489
9.172662648001278,2559,4095,4095
9.175367987001664,2672,4095,4095
9.178070492002007,2907,4095,4095
9.180761873001757,2363,2816,3056
9.183452711000427,2191,284,2473
9.1861415079984,2550,4095,4095
9.188830096998572,1914,4095,3901
9.191520811000373,2547,4095,4095
9.194209691999276,2197,2555,3151
9.196897072000866,3026,4095,4095
9.19958582700201,2430,2942,3103
9.202276541000174,2943,4095,4095
9.204963462998421,2629,4095,4095
9.207653134999418,2419,4095,4095
9.210340682999231,2462,4095,4095
9.213030355000228,2679,4095,4095
9.215720943000633,2822,4095,4095
9.218409491000784,3151,4095,4095
9.221098287998757,2355,4095,4095
9.22378637699876,2162,2098,3050
9.226475006998953,2507,4095,4095
9.22916284600069,1873,4095,3831
9.231852267999784,2507,4095,4095
9.234538565000548,2160,4095,3557
9.23722552899926,2954,4095,4069
9.23991420099992,2327,3301,3241
9.24260266499914,2756,4095,4095
9.245291420000285,2500,4095,4095
9.247981134001748,2187,4095,4095
9.250670556000841,1821,2890,3154
9.253356686000188,1986,2726,2946
9.256045191999874,2704,4095,4095
9.258734655999433,2715,4095,4095
9.261422870000388,2782,4095,4095
9.264112374999968,1985,4095,3663
9.266802838999865,2347,4095,4095
9.269489094000164,1763,4095,3574
9.272177850001754,2423,4095,4095
9.274867562999134,2092,4095,4095
9.277570319001825,2236,3150,3397
9.280271407998953,2239,4095,3696
9.282963538000331,2640,4095,4095
9.285652627000673,2406,4095,4095
9.288341423998645,1967,4095,4095
9.291030846001377,1783,4095,4095
9.293717726999603,1953,222,2475
9.296449982000922,2639,4095,4095
9.299140778999572,2186,3534,3199
9.301832617999025,2625,4095,4095
9.30451920699852,2205,4095,4095
9.307208962000004,2207,4095,4095
9.309899342999415,1643,4095,3535
9.312589306999143,2304,4095,4095
9.315277812002023,2322,4095,4095
9.317966193000757,2471,4095,4095
9.320653155999025,2054,2892,3053
9.323340912000276,1867,647,2467
9.326028709001548,2191,4095,4095
9.328717131000303,1554,4095,4095
9.331407220000983,2160,4095,4095
9.334096850001515,1823,2170,3071
9.336785521998536,2495,4095,4095
9.33947482000076,2034,2934,3135
9.34216461699907,2449,4095,4095
9.344854704999307,2192,4095,4095
9.347544585998548,2015,4095,4095
9.350235008001619,1916,4095,4095
9.352923304999422,2236,4095,4095
9.355613519001054,2330,4095,4095
9.358307358001184,2527,4095,4095
9.36099511300199,1955,4095,4095
9.363683577001211,1763,1683,2891
9.36637437399986,2105,4095,4095
9.369061337998573,1491,4095,3827
9.371749467998598,2122,4095,4095
9.374439598999743,1794,3854,3497
9.377141646000382,2492,4095,4095
9.379841276000661,1968,2778,3190
9.38253549000001,2357,4095,4095
9.385224328998447,2146,4095,4095
9.38791354299974,1855,4095,4095
9.390601840001182,1490,3162,3145
9.39328938700055,1668,3008,3002
9.395976891999453,2319,4095,4095
9.398666355999012,2357,4095,4095
9.401354320001701,2402,4095,4095
9.404041616999166,1658,4095,3600
9.406730414000776,2000,4095,4095
9.409419669998897,1413,4095,3600
9.412108716998773,2054,4095,4095
9.414796139000828,1727,4095,4095
9.417481685999519,1869,2865,3311
9.420169858000008,1869,4095,3675
9.422856863999186,2227,4095,4095
9.42554366100012,2013,4095,4095
9.428230500001519,1652,4095,4095
9.430918754998856,1415,4095,3773
9.433605219001038,1616,273,2432
9.436292266000237,2295,4095,4095
9.43898202100172,1891,4095,3294
9.44166965200202,2331,4095,4095
9.444358491000457,1731,4095,4095
9.44704945400008,1951,4095,4095
9.44973737699911,1392,4095,3530
9.452454007001506,2057,4095,4095
9.455143387000135,2046,4095,4095
9.457834351000201,1861,4095,4095
9.460521731998597,1841,2635,3018
9.463211820999277,1671,1591,2607
9.465901450999809,2013,4095,4095
9.468590623000637,1395,4095,4095
9.47127983700193,1995,4095,4095
9.473968717000389,1670,1641,2928
9.476670013998955,2321,4095,4095
9.47936897800173,1881,2970,3142
9.482059942001797,2273,4095,4095
9.484748864000721,1990,4095,4095
9.487438744999963,1844,4095,4095
9.49012729199967,1284,4095,4095
9.492816213998594,2012,4095,4095
9.495504594000522,2094,4095,4095
9.498191974998917,2319,4095,4095
9.500881063999259,1730,4095,3387
9.503571319000912,1520,1120,2781
9.506259740999667,1833,4095,4095
9.508947163001721,1197,4095,4037
9.511633959999017,1783,4095,4095
9.514345758001582,1446,3382,3363
9.517058387998986,2124,4095,4095
9.519757559999562,1619,2928,3245
9.52245156600111,1992,4095,4095
9.525145195999357,1763,4095,4095
9.527837617999467,1488,4095,4095
9.530529665000358,1122,3007,3114
9.533230129000003,1296,3142,3062
9.535929301000579,1939,4095,4095
9.538625557001069,2000,4095,4095
9.541316353999719,2030,4095,4095
9.544011193000188,1298,4095,3610
9.546704781998415,1646,4095,4095
9.549395704001654,1059,4095,3597
9.552089084001636,1700,4095,4095
9.55478646499978,1378,4095,4095
9.557478095000988,1523,3067,3327
9.560172017001605,1522,4095,3776
9.562864898001862,1882,4095,4095
9.565558070000407,1680,4095,4095
9.575886257000093,1231,4095,4095
9.578767847000563,1078,4095,4095
9.581483518999448,1936,4095,4095
9.584179483001208,1183,4095,4095
9.586875696000789,1535,4095,4095
9.58956611800022,983,4095,3504
9.592258873999526,1680,4095,4095
9.59496408799896,1554,4095,4095
9.597660510000424,1603,4095,4095
9.6003568490014,1697,3833,3185
9.603055686999141,1692,3066,2993
9.605782693000947,2256,4095,4095
9.608478532001755,1936,4095,4095
9.611175704001653,2800,4095,4095
9.613870793000387,2695,1466,2846
9.61656250699889,4062,4095,4095
9.61925667900141,3583,2634,3173
9.62194830899898,4095,4095,4095
9.624641898000846,4051,4095,4095
9.62733436200142,3393,4095,4095
9.630024409001635,2169,4095,4095
9.632716913998593,2305,4095,4095
9.635411878000014,1897,4095,4095
9.638105133999488,1774,4095,4095
9.640797055999428,916,4031,3291
9.643493895000574,537,897,2719
9.646188858001551,725,4095,4095
9.648879946998932,73,4095,3851
9.65157528599957,667,4095,4095
9.654269082999235,377,3361,3376
9.656965422000212,1110,4095,4095
9.65966492699954,689,2806,3197
9.662361224000051,1175,4095,4095
9.665051855001366,1073,4095,4095
9.667747859999508,900,4095,4095
9.67044182400059,867,4095,3838
9.673132705000171,945,3984,3843
9.675827168000978,1694,4095,4095
9.678521756999544,1836,4095,4095
9.68121301300198,1913,4095,4095
9.683907185000862,1215,3486,3421
9.68660323199947,1584,4095,4095
9.68929436200051,1007,4095,3556
9.691989035000006,1663,4095,4095
9.694687373001216,1347,4095,4095
9.69738167000105,1505,2675,3247
9.700076675999298,1515,4095,3745
9.702772055999958,1897,4095,4095
9.705462604000786,1712,4095,4095
9.70815794200098,1239,4095,4095
9.71085194799889,1139,4095,4095
9.713542328001495,1333,290,2435
9.716238166998664,2002,4095,4095
9.718933214000572,1606,3683,3303
9.721627260998503,2032,4095,4095
9.724318724998739,1471,4095,4095
9.727010605998657,1692,4095,4095
9.729704694000247,1145,4095,3461
9.732429575000424,1817,4095,4095
9.735125955001422,1845,4095,4095
9.73782175299857,1911,4095,4095
9.74051267500181,1617,2720,3098
9.74320772200008,1447,783,2460
9.74590043599892,1798,4095,4095
9.748592857999029,1190,4095,3883
9.751287571998546,1805,4095,4095
9.753984660001151,1485,2223,3062
9.756679832000373,2142,4095,4095
