time,y1,y2,y3
0.006386846000168589,1932,909,432
0.009105684001042391,1977,1058,421
0.01179731400043238,2102,1205,452
0.01448456999969494,2083,1285,468
0.01717803300016385,2029,1365,511
0.01987153899972327,1980,1322,464
0.022559668999747373,1950,1322,474
0.025252507999539375,1934,1310,465
0.027951013000347302,1926,1287,463
0.030644393000329728,2090,1398,534
0.03333377400122117,2117,1425,529
0.03602911199959635,2068,1459,554
0.03871711700048763,2002,1437,530
0.04140633099996194,1965,1387,497
0.044094210999901406,1936,1371,496
0.04677996700047515,1927,1323,466
0.049467180000647204,2011,1387,511
0.052157561000058195,2110,1435,539
0.054843066000103136,2084,1456,550
0.0575452379998751,2026,1488,572
0.06024574299954111,1970,1397,500
0.06293583200022113,1945,1383,502
0.06562508699971659,1930,1345,481
0.06831567600056587,1922,1329,486
0.07100697300120373,2096,1424,546
0.07369972800006508,2107,1440,541
0.07638706699981412,2055,1472,565
0.07907419700131868,1994,1427,523
0.08176316000026418,1956,1385,501
0.08445066599961137,1935,1366,499
0.08713729600094666,1921,1313,464
0.08982651000042097,2036,1399,531
0.09251372300059302,2112,1438,541
0.09520285399958084,2077,1460,553
0.09789060900038749,2019,1475,562
0.10058257300079276,1969,1394,496
0.10327099400092266,1939,1382,502
0.10596108299978368,1925,1342,481
0.10864792200118245,1931,1344,496
0.11133830200014927,2079,1421,538
0.11402559900125198,2079,1434,538
0.11671793800087471,2030,1471,563
0.11940627600051812,1982,1410,511
0.12211886499972024,1949,1379,500
0.12480991200027347,1931,1360,495
0.12752591699972982,1921,1308,464
0.13021667199973308,2054,1408,537
0.13290892800068832,2102,1435,534
0.13559868300035305,2064,1462,553
0.13828477199967892,2004,1459,547
0.1409727770005702,1965,1389,500
0.14366119900114427,1936,1377,506
0.14634666300116805,1921,1329,477
0.1490352510008961,1965,1363,507
0.1517226310006663,2096,1426,543
0.1544110949998867,2087,1446,544
0.1571141840013297,2030,1481,571
0.15981489700061502,1979,1409,511
0.16250848600066092,1948,1381,502
0.16520124099952227,1924,1355,490
0.16789083000003302,1919,1312,474
0.17057775200009928,2047,1412,544
0.17326596600105404,2081,1427,537
0.17595438700118393,2038,1455,558
0.17864230899976974,1990,1437,534
0.18133660599960422,1955,1379,496
0.18402373699973396,1931,1367,497
0.18670994999956747,1920,1322,467
0.18939778900130477,1988,1375,511
0.19208321100086323,2088,1426,537
0.194768841000041,2067,1441,546
0.19745718000012857,2011,1474,570
0.2001476850000472,1968,1392,500
0.20283398200081137,1936,1375,498
0.20552082100039115,1924,1344,487
0.20820811799967487,1907,1317,481
0.2108972480000375,2072,1414,541
0.2136002120005287,2096,1430,535
0.21629063399996085,2051,1466,560
0.21897893000095792,1993,1429,528
0.22166710199962836,1952,1383,497
0.22435439900073106,1929,1369,496
0.22704490500109387,1919,1317,464
0.2297361600012664,2001,1387,525
0.23242499899970426,2084,1427,533
0.23511167099968588,2061,1446,544
0.23780134300068312,2003,1473,563
0.24048801400022057,1963,1387,496
0.2431746860002022,1935,1371,497
0.2458617749998666,1922,1337,479
0.24854911399961566,1919,1328,492
0.25123491100021056,2081,1417,539
0.25392324899985397,2090,1430,536
0.25662846300110687,2034,1467,560
0.25932667699999,1982,1417,511
0.2620204320010089,1946,1378,499
0.2647107290013082,1928,1359,498
0.26739769199957664,1918,1309,464
0.27012490600100136,2023,1398,531
0.27281578600013745,2090,1426,534
0.27553208300014376,2059,1450,546
0.27822117200048524,2000,1457,551
0.2809092610004882,1961,1385,496
0.28359884900055476,1936,1374,501
0.28628560499964806,1921,1330,476
0.2889746100008779,1943,1349,497
0.29166557300050044,2072,1419,541
0.2943529540007148,2066,1429,535
0.29704125100033707,2016,1468,565
0.299730589000319,1971,1406,511
0.30241876100080844,1940,1374,499
0.30510564200085355,1921,1349,491
0.3077918140006659,1911,1297,464
0.31048027700126113,2019,1396,535
0.3131693240011373,2057,1413,530
0.3158595790009713,2021,1441,546
0.3185502930009534,1979,1435,541
0.3212390070002584,1939,1370,495
0.3239318039995851,1924,1360,496
0.32662064200121677,1917,1318,467
0.32930923099957,1973,1361,511
0.33199744500052475,2099,1424,542
0.33468420000099286,2083,1441,543
0.33737295500031905,2025,1480,566
0.3400611690012738,1974,1402,498
0.3427486319997115,1937,1379,501
0.34543705400028557,1923,1348,487
0.348123851001219,1913,1309,474
0.35080960699997377,2039,1408,541
0.3535084449995338,2066,1423,531
0.3561989919999178,2023,1451,550
0.3589023719996476,1978,1424,527
0.36160362800001167,1945,1374,496
0.3642983829995501,1925,1360,496
0.3669885550007166,1914,1313,464
0.3696781850012485,1987,1374,511
0.3723673990007228,2070,1422,538
0.3750553210011276,2037,1434,538
0.3777446599997347,1998,1470,571
0.38043258099969535,1959,1381,496
0.38311946199974045,1930,1363,497
0.3858087999997224,1919,1335,481
0.3885015140003816,1913,1319,482
0.39119231100085017,2059,1408,541
0.3938821080009802,2067,1422,529
0.3968608220002352,2022,1455,557
0.3995533270008309,1969,1406,509
0.4022409580011299,1938,1371,496
0.4049660460004816,1920,1354,495
0.4076619679999567,1914,1300,463
0.41035338999972737,2027,1398,532
0.41304206200038607,2075,1423,532
0.41573094300110824,2038,1446,549
0.4184224479995464,1987,1450,545
0.42111137000028975,1950,1375,495
0.42380141700050444,1927,1365,497
0.4264883390005707,1915,1324,471
0.42917734399998153,1952,1351,502
0.43186551600047096,2096,1424,538
0.43455052100034663,2087,1437,539
0.4372388600004342,2027,1473,567
0.4399274900006276,1973,1407,510
0.44261282899969956,1937,1377,496
0.44529987600071763,1920,1349,491
0.44798792300025525,1910,1302,466
0.45067688600101974,2032,1405,541
0.45336630800011335,2068,1421,534
0.4560532300001796,2029,1449,550
0.4587549019997823,1978,1434,535
0.4614543660009076,1945,1375,496
0.4641449549999379,1924,1359,496
0.46683287599989853,1914,1317,467
0.4695210900008533,1978,1369,511
0.47221451200130105,2080,1424,541
0.4749136419995921,2066,1438,539
0.4776105640012247,2007,1472,570
0.4803017779995571,1965,1392,501
0.48299615799987805,1935,1371,498
0.48568578900085413,1918,1344,482
0.48837575200013816,1909,1313,478
0.4910639240006276,2051,1408,534
0.493753471000673,2066,1422,530
0.496441268000126,2021,1453,555
0.49912764799955767,1975,1415,526
0.5018166120007663,1940,1371,495
0.5045051590004732,1923,1360,496
0.5071924980002223,1910,1309,465
0.5098815860001196,1987,1375,524
0.5125705080008629,2071,1422,535
0.5152613050013315,2044,1435,543
0.5179506020012923,1999,1470,560
0.5206419410005765,1956,1379,494
0.5233324460004951,1930,1365,496
0.5260231180000119,1916,1333,480
0.5287125400009245,1909,1323,487
0.531398879000335,2038,1403,535
0.5341228840006806,2044,1414,529
0.5368132229996263,2004,1449,557
0.5395303950008383,1966,1402,511
0.5422195660012221,1936,1362,493
0.544911779999893,1920,1348,491
0.5476062440011447,1909,1298,458
0.5502933320003649,2005,1378,524
0.5529810040006851,2077,1421,536
0.5556691350011533,2039,1442,544
0.5583703900010732,1990,1453,551
0.561070228999597,1950,1375,492
0.5637626919997274,1925,1363,497
0.5664512809998996,1911,1327,471
0.5691400360010448,1930,1341,499
0.5718287500003498,2042,1406,529
0.5745150050006487,2036,1411,530
0.5772035940008209,1989,1454,560
0.5798944320013106,1959,1392,510
0.5825821039998118,1932,1361,496
0.5852732350012957,1918,1343,492
0.5879606150010659,1911,1294,462
0.5906468280008994,2016,1392,535
0.593335167000987,2056,1413,532
0.59606167200036,2019,1439,548
0.5987573860002158,1980,1445,549
0.6014498910008115,1943,1380,503
0.6041395219999686,1924,1363,509
0.6068279020000773,1915,1323,478
0.6095200740001019,1939,1359,511
0.6122080790009932,1999,1395,541
0.6148970009999175,1995,1402,540
0.6175861730007455,1968,1441,563
0.620276052999543,1940,1367,502
0.6229660999997577,1930,1356,502
0.6256550640009664,1919,1331,491
0.6283452780007792,1911,1303,478
0.6310312000005069,2000,1390,541
0.6337260800009972,2016,1399,531
0.6364149180008098,1987,1425,551
0.6391032989995438,1963,1407,527
0.6417932210006256,1936,1359,496
0.6444841009997617,1923,1351,501
0.6471750649998285,1918,1307,471
0.6498637780005083,1968,1362,523
0.652550283999517,2030,1403,533
0.6552380390003236,2007,1418,541
0.6579416690001381,1977,1455,565
0.6606411330012634,1947,1367,499
0.6633335549995536,1927,1359,505
0.6660245180009952,1919,1329,485
0.6687125650005328,1918,1319,494
0.6713993619996472,2013,1395,541
0.6741235760000563,2023,1408,531
0.6768165400008002,1994,1439,560
0.6795320450000872,1959,1397,511
0.6822207590012113,1936,1360,500
0.6849119310008973,1921,1351,499
0.6875999780004349,1917,1303,467
0.6902863160012203,1957,1363,526
0.6929748630009271,2005,1394,534
0.6956628269999783,1989,1413,542
0.6983499569996638,1967,1435,553
0.7010382120006398,1940,1360,496
0.7037261340010446,1923,1355,501
0.7064150149999477,1918,1324,478
0.7091066869998031,1925,1331,497
0.7117947750011808,2025,1399,531
0.7144856550003169,2022,1408,531
0.7171738690012717,1989,1442,560
0.7198624160009786,1955,1392,511
0.7225527130012779,1935,1360,499
0.7252402180001809,1921,1344,496
0.7279297650002263,1919,1296,464
0.730623770999955,1984,1387,535
0.7333124010001484,2009,1398,535
0.7360018640010821,1987,1422,545
0.7386912860001758,1966,1424,543
0.7413827920008771,1939,1360,497
0.7440714639997168,1925,1358,501
0.7467598439998255,1920,1320,477
0.7494482660003996,1936,1347,509
0.7521355629996833,2014,1392,538
0.7548217350013147,2009,1407,537
0.7575116980005987,1981,1441,563
0.7602201200006675,1945,1380,506
0.7629208760008623,1935,1360,499
0.7656148389996815,1924,1338,491
0.76830622000125,1920,1302,475
0.7709955170012108,2033,1403,542
0.7736877719999029,2063,1421,538
0.776378485999885,2022,1445,560
0.7790653660013049,1981,1426,534
0.7817535789999965,1950,1375,506
0.7844422510006552,1930,1362,507
0.7871287150010176,1922,1314,476
0.7898185120011476,1967,1367,528
0.7925077260006219,2032,1407,541
0.7951945639997575,2019,1422,542
0.7978835699996125,1989,1456,566
0.800572825000927,1957,1378,497
0.8032624970001052,1936,1363,505
0.8059527519999392,1927,1337,489
0.8086755069998617,1921,1316,481
0.8113653039999917,2027,1403,542
0.8140550179996353,2045,1414,532
0.8167465229998925,2006,1446,559
0.8194688620005763,1968,1412,528
0.8221608670010028,1943,1362,498
0.824849456001175,1926,1359,498
0.827539545000036,1921,1309,466
0.8302263410005253,1986,1377,528
0.8329146800006129,2039,1409,538
0.8356059770012507,2017,1425,545
0.8382995660012966,1984,1456,560
0.8409897380006441,1955,1374,496
0.8436790350006049,1933,1365,506
0.846366081999804,1922,1332,487
0.8490541700011818,1923,1330,495
0.8517426340004022,2030,1403,543
0.854428889000701,2033,1415,538
0.8571176860004925,2002,1445,560
0.8598206910010049,1967,1401,511
0.8625186130011571,1941,1367,501
0.865211119000378,1920,1355,497
0.8679032070012909,1923,1301,467
0.8705930460000673,2000,1392,533
0.873283717999584,2046,1413,539
0.8759710150006867,2019,1436,554
0.8786581450003723,1982,1447,553
0.8813460250003118,1950,1373,496
0.8840352810002514,1936,1367,506
0.8867212440000003,1922,1329,480
0.8894080410009337,1940,1349,509
0.8920967129997734,2051,1409,547
0.8947853019999457,2042,1422,540
0.8974740989997372,2001,1456,567
0.9001623120002478,1968,1395,511
0.90285060899987,1941,1369,503
0.9055381979997037,1930,1350,496
0.9082341200009978,1920,1301,471
0.9109282500012341,1995,1393,543
0.9136269640002865,2017,1399,531
0.9163223030009249,1994,1427,549
0.9190128500013088,1966,1422,535
0.9217008960004023,1942,1361,497
0.9243904430004477,1930,1359,499
0.9270781150007679,1924,1318,474
0.9297685370002,1967,1360,511
0.9324701260011352,2046,1410,544
0.935167215000547,2033,1423,544
0.9378659280009742,1995,1458,571
0.9405964750003477,1959,1387,509
0.9432934390006267,1936,1369,503
0.9459859440012224,1927,1344,495
0.9486763660006545,1920,1317,485
0.9513645799997903,2013,1400,542
0.9540562519996456,2029,1408,528
0.956754049000665,2000,1438,555
0.9594908870003565,1967,1409,527
0.9621929340009956,1942,1362,497
0.964887981001084,1933,1355,501
0.9675791120007489,1921,1310,473
0.970267242000773,1982,1373,528
0.9729568720013049,2032,1408,539
0.9756478359995526,2017,1424,545
0.978337675000148,1984,1456,563
0.9810253050000028,1951,1370,499
0.983714351999879,1933,1362,504
0.986401565000051,1925,1333,488
0.9890918620003504,1919,1328,496
0.9917809930011572,2017,1397,541
0.9944707060003566,2019,1407,537
0.9971613369998522,1991,1440,559
0.999850633999813,1963,1395,511
1.002591055999801,1939,1361,500
1.0053081030000612,1927,1356,499
1.008000316000107,1922,1303,466
1.0107149049999862,2028,1396,541
1.0134398270001839,2082,1424,546
1.0161617070007196,2044,1451,555
1.018849879001209,1999,1455,558
1.0215392179998162,1961,1381,502
1.0242297650002001,1935,1373,506
1.0269198950009013,1925,1331,482
1.0296121089995722,1956,1359,511
1.0323022390002734,2067,1419,547
1.0349904110007628,2058,1433,546
1.0376782080002158,2011,1469,572
1.0403665470003034,1973,1403,511
1.0430538439995871,1943,1377,501
1.0457412659998226,1931,1355,496
1.0484293959998467,1921,1311,479
1.0511171510006534,2002,1395,545
1.05380703100127,2027,1409,540
1.0564922869998554,2003,1435,558
1.0592101250003907,1972,1424,535
1.061930380999911,1949,1368,497
1.0646332610012905,1934,1360,502
1.0673294750013156,1929,1317,474
1.0700263970011292,1977,1370,524
1.0727216100003716,2064,1417,543
1.0754140320004808,2039,1430,546
1.0781384960009746,2002,1467,567
1.0808366680012114,1966,1385,502
1.0835333819995867,1944,1374,506
1.0862325119996967,1929,1344,493
1.0889277260012022,1927,1325,493
1.091627439000149,2037,1409,551
1.094321028000195,2053,1419,542
1.097016032999818,2019,1456,565
1.0997201629998017,1979,1417,531
1.102414127000884,1954,1376,502
1.1051086740008031,1937,1360,500
1.107802721000553,1930,1315,474
1.1104926010011695,1989,1387,535
1.1131866070008982,2030,1412,539
1.115879404000225,2011,1427,550
1.1185714510011167,1977,1451,559
1.121264372000951,1943,1369,497
1.1239581690006162,1930,1361,506
1.1266508830012754,1920,1328,486
1.1293413470011728,1927,1333,502
1.1320370600005845,2059,1408,545
1.1347283570012223,2057,1423,540
1.1374221959995339,2011,1456,565
1.140114910000193,1976,1399,526
1.1428046230012114,1947,1372,507
1.145498628000496,1932,1357,500
1.148191174999738,1923,1307,467
1.150936181000361,2010,1397,542
1.1536481860002823,2040,1417,541
1.1563466080006037,2017,1438,551
1.159039947000565,1982,1441,547
1.1617322439997224,1955,1377,500
1.1644233320002968,1936,1367,507
1.1671121710005536,1927,1328,479
1.1698032180011069,1968,1362,523
1.172494098000243,2077,1424,547
1.1751833540001826,2064,1435,547
1.1778730260011798,2015,1471,575
1.1805637390007178,1975,1402,511
1.1832535360008478,1947,1379,509
1.185943500000576,1934,1351,497
1.1886363379999239,1924,1317,482
1.1913297600003716,2058,1414,550
1.1940205570008402,2081,1432,544
1.1967106880001666,2042,1459,563
1.1993992349998734,1993,1439,543
1.2021277399999235,1957,1385,501
1.2048213289999694,1938,1374,510
1.2075145010003325,1931,1328,479
1.210205297000357,1992,1385,528
1.2129273030004697,2085,1429,549
1.2156195580009808,2064,1446,549
1.2183057300007931,2011,1482,576
1.2209946940001828,1973,1393,503
1.223685282000588,1943,1382,510
1.2263741210008448,1934,1347,496
1.2290637099995365,1925,1328,490
1.2317540069998358,2041,1412,546
1.2344409699999233,2058,1424,538
1.2371373090009001,2014,1451,560
1.239826938999613,1980,1415,528
1.2425154030006524,1952,1376,503
1.2452034910002112,1934,1361,503
1.2479047470005753,1927,1315,470
1.2506117940010881,2003,1390,538
1.2533331739996356,2063,1422,543
1.2560530130012921,2033,1440,554
1.2587509349996253,1997,1459,560
1.2614456480005174,1963,1380,504
1.26413827900069,1937,1369,509
1.2668302420006512,1934,1333,487
1.2695267480012262,1936,1346,507
1.2722216279998975,2064,1416,545
1.27491288300007,2064,1426,543
1.2776075130004756,2017,1463,570
1.2803026439996756,1978,1408,527
1.2829966910012445,1948,1376,505
1.2856956539999373,1934,1360,496
1.2883923680001317,1930,1310,469
1.2910789569996268,2044,1410,546
1.2937740039997152,2092,1431,549
1.29646913400029,2059,1459,560
1.299161680999532,2002,1456,557
1.3018560190012067,1967,1391,507
1.3045504830006394,1943,1380,511
1.3072441130007064,1934,1335,483
1.3099387849997584,1964,1370,527
1.3126331660005235,2045,1418,546
1.3153342540008452,2032,1427,546
1.3180351350001729,1999,1463,572
1.3207322230009595,1968,1392,509
1.3234244369996304,1944,1371,508
1.3261526090009284,1934,1343,496
1.3288439480002125,1930,1318,486
1.3315364530008083,2037,1409,547
1.334227875000579,2062,1422,544
1.3369201719997363,2023,1450,560
1.3396147189996555,1984,1424,534
1.3423052660000394,1952,1378,503
1.3450024789999588,1936,1369,503
1.347700985001211,1926,1323,479
1.3503954070001782,1989,1380,528
1.353093412000817,2059,1419,540
1.355789626000842,2034,1434,550
1.3584819229999994,1999,1471,573
1.3611775530007435,1963,1382,506
1.363873225000134,1945,1374,511
1.366558896999777,1934,1344,495
1.3692528600004152,1923,1330,496
1.3719477819995518,2009,1399,540
1.3746394959998725,2015,1405,534
1.3773350009996648,1991,1438,560
1.3800337150005362,1966,1397,524
1.3827268040004128,1942,1362,501
1.3854208089996973,1935,1355,499
1.38811531400097,1927,1303,467
1.3908081940007833,2010,1390,535
1.393502200000512,2057,1415,539
1.396197497000685,2023,1435,555
1.3988883350011747,1994,1455,560
1.4015825490005227,1961,1377,498
1.4042782209999132,1942,1372,510
1.4069689759999164,1929,1334,490
1.4096732320012961,1943,1347,507
1.4123704450012156,2041,1413,543
1.4150635759997385,2034,1423,538
1.4177590809995309,2000,1456,562
1.420458045000487,1968,1398,511
1.423153091000131,1943,1367,506
1.4258487220013194,1934,1353,496
1.4285406440012594,1928,1302,469
1.431233149000036,2023,1402,544
1.4339283629997226,2064,1421,543
1.436621451000974,2030,1447,560
1.4393149570005335,1990,1440,545
1.4420093370008544,1957,1378,501
1.4447061760001816,1940,1371,511
1.4474031390000164,1931,1328,482
1.4501207280009112,1970,1369,527
1.4528160669997305,2070,1423,545
1.4555115300008765,2057,1437,549
1.4582046190007532,2001,1471,574
1.4608955410003546,1968,1393,509
1.4635903790003795,1948,1376,510
1.4662827600004675,1921,1341,486
1.4689776400009578,1928,1322,486
1.4716714790010883,2032,1409,548
1.4743678590002673,2047,1421,539
1.4770652810002503,2015,1450,559
1.4797607860000426,1980,1423,537
1.482455833000131,1954,1374,504
1.485154212999987,1939,1363,505
1.4878510100006679,1934,1322,477
1.4905427659996349,1987,1379,528
1.4932377290006116,2046,1418,544
1.4959336100000655,2031,1430,547
1.4986244900010206,1996,1469,570
1.5013182870006858,1965,1382,501
1.5040118760007317,1938,1373,507
1.506705548001264,1932,1339,489
1.5094031780008663,1929,1329,496
1.5120966409995162,2041,1408,539
1.5147890219996043,2047,1419,538
1.5174839440005599,2007,1453,560
1.5201755320013035,1972,1408,522
1.5228644130002067,1952,1374,499
1.5255558349999774,1936,1360,498
1.5282478820008691,1931,1311,470
1.5309388040004706,2029,1398,542
1.533629892001045,2098,1433,546
1.53632398100126,2067,1456,560
1.5390201110003545,2015,1472,563
1.541715491001014,1969,1392,503
1.5444164970012935,1946,1383,508
1.5471104600001127,1931,1341,487
1.5498052160000952,1941,1355,509
1.5524988460001623,2039,1415,545
1.555189976001202,2034,1422,540
1.5578847320011846,2005,1458,565
1.5605779449997499,1968,1398,525
1.5632701169997745,1946,1373,507
1.565963955999905,1936,1355,496
1.5686567110005853,1931,1305,468
1.571349507999912,2055,1412,550
1.5740445970004657,2096,1433,541
1.5767396850005753,2059,1462,560
1.5794597740004974,2000,1456,550
1.582154404000903,1965,1389,507
1.584848160000547,1939,1377,511
1.587543290001122,1933,1331,481
1.5902338790001522,1986,1376,528
1.5929259670010651,2096,1431,553
1.5956213059998845,2078,1447,553
1.598311478001051,2027,1484,577
1.6010050660006527,1980,1405,511
1.603706654999769,1947,1386,511
1.6064026189997094,1936,1355,499
1.6090980410008342,1930,1326,491
1.611791504001303,2047,1415,554
1.614483385001222,2072,1429,547
1.6171776820010564,2032,1457,562
1.6198692289999599,1991,1428,539
1.6225579000001744,1959,1381,506
1.6252477810012351,1941,1374,507
1.627938453000752,1930,1322,478
1.6306288329997187,2002,1387,530
1.6333190050008852,2080,1429,549
1.6360139270000218,2059,1446,557
1.6387067659998138,2011,1481,576
1.641402104000008,1968,1391,505
1.6440949850002653,1947,1380,510
1.6467870310007129,1931,1345,494
1.6494797030009067,1929,1335,497
1.6521746670005086,2046,1410,544
1.6548657140010619,2055,1422,542
1.6575612610013195,2018,1456,561
1.660256016000858,1978,1410,527
1.6629479800012632,1954,1376,507
1.665642777001267,1938,1360,500
1.6683349490012915,1927,1314,468
1.6710269129998778,2026,1398,539
1.6737230430007912,2089,1429,543
1.6764167150013236,2058,1454,559
1.6791075529999944,2005,1465,561
1.6818015999997442,1968,1392,508
1.6844953560012073,1943,1381,510
1.6871866530000261,1927,1341,490
1.6898801580009604,1946,1357,511
1.692574038001112,2086,1424,547
1.695264584999677,2082,1441,545
1.6979586739998922,2033,1475,573
1.7006547620003403,1987,1418,528
1.7033478930006822,1954,1383,507
1.7060421480000514,1936,1361,496
1.708736153001155,1933,1314,474
1.7114563249997445,2035,1415,551
1.7141491639995365,2081,1428,549
1.7168441280009574,2046,1457,560
1.719536466000136,1998,1452,550
1.722227472000668,1963,1389,503
1.7249178940001002,1942,1378,508
1.727608274000886,1934,1333,481
1.7302974869999161,1966,1370,528
1.732992909001041,2058,1419,547
1.7356879560011294,2043,1431,545
1.7383803780012386,2004,1467,571
1.7410710500007553,1971,1394,509
1.7437654719997226,1948,1378,511
1.7464579780007625,1937,1353,496
1.7491521080009989,1931,1322,487
1.751848654999776,2032,1410,548
1.7545387850004772,2053,1423,540
1.7572345400003542,2018,1449,560
1.7599274210006115,1983,1424,537
1.7626230509995366,1955,1376,502
1.7653192649995617,1936,1367,506
1.7680141029995866,1930,1323,475
1.7707079840001825,1998,1383,528
1.7734007390008628,2086,1429,546
1.776094078000824,2064,1446,551
1.7787853330009966,2015,1482,576
1.7814799629995832,1978,1393,503
1.784175843000412,1947,1382,511
1.786866849000944,1935,1347,496
1.789561520999996,1931,1333,496
1.7922570680002536,2032,1408,547
1.7949509900008707,2042,1419,542
1.7976498280004307,2007,1453,560
1.8003453340006672,1970,1408,524
1.803036463999888,1953,1373,497
1.8057280110006104,1939,1360,498
1.808423558000868,1933,1317,468
1.8111153959998774,2019,1392,541
1.8138099850002618,2074,1424,541
1.8165050320003502,2043,1447,557
1.81920120399991,1997,1465,560
1.821893918000569,1971,1385,503
1.8245851310002763,1947,1378,511
1.8272779700000683,1923,1328,478
1.829975517001003,1946,1355,507
1.8326689389996318,2064,1419,546
1.835360736000439,2064,1429,545
1.8380637410009513,2016,1466,565
1.8407585799996014,1980,1408,527
1.8434796270012157,1947,1376,507
1.8461732570012828,1929,1355,499
1.8488680540012865,1922,1306,469
1.851562809000825,2019,1405,545
1.8542523560008703,2062,1423,542
1.8569454870012123,2031,1447,559
1.8596429090011952,1987,1442,547
1.8623356219995912,1962,1378,501
1.8650299190012447,1937,1371,509
1.8677227160005714,1933,1328,481
1.8704425970008742,1973,1369,528
1.8731427270013228,2065,1419,545
1.875838357000248,2053,1433,549
1.878530904001309,2006,1470,573
1.8812262840001495,1968,1392,506
1.8839216650012531,1951,1376,506
1.8866128370009392,1937,1349,493
1.8893082169997797,1931,1323,487
1.89200630599953,2070,1422,555
1.8947008940012893,2095,1437,549
1.8973956500012719,2045,1467,567
1.900088238000535,2000,1437,536
1.9027788690000307,1964,1390,506
1.9054739570001402,1938,1376,507
1.9081658369996148,1933,1327,482
1.9108570090011199,2010,1392,530
1.9135533480002778,2086,1434,553
1.9162483529999008,2065,1455,555
1.918940442001258,2014,1485,574
1.9216328220009018,1974,1393,505
1.924326619000567,1951,1386,511
1.9270188749997033,1934,1347,494
1.929710338001314,1935,1341,499
1.9324014680005348,2037,1412,550
1.9350922650010034,2046,1424,544
1.937786436999886,2011,1456,562
1.9404795259997627,1979,1411,526
1.9431641980008862,1951,1378,503
1.945858078001038,1937,1362,502
1.9485535000003438,1934,1314,475
1.9512444219999452,2019,1398,546
1.9539382189996104,2074,1424,545
1.9566338490003545,2042,1446,555
1.9593240630001674,2000,1461,560
1.962017318001017,1967,1383,506
1.964711990000069,1942,1379,511
1.9674035370007914,1935,1339,490
1.9701249589998042,1950,1355,511
1.9728192149996175,2070,1422,547
1.9755108030003612,2064,1431,545
1.978201309000724,2014,1469,570
1.9808963970008335,1979,1408,524
1.9835906110001815,1951,1377,510
1.9862852410005871,1936,1359,500
1.9889814960006333,1931,1311,475
1.9916767520007852,2045,1413,550
1.9943683399997099,2089,1434,547
1.9970633040011307,2053,1459,559
1.9997570180003095,1999,1452,550
2.002450605999911,1967,1390,510
2.005199237000852,1942,1377,511
2.007929241999591,1934,1334,482
2.0106218310011172,1988,1382,528
2.0133185030008462,2080,1427,549
2.0160139660001732,2065,1445,555
2.018708429999606,2013,1476,576
2.021435519000079,1975,1397,509
2.0241660660012712,1948,1383,511
2.0268594460012537,1934,1350,496
2.0295504100013204,1930,1328,493
2.0322429980005836,2053,1417,550
2.034934545001306,2067,1426,543
2.0376300919997448,2029,1458,563
2.040322639000806,1987,1424,534
2.043013394000809,1960,1379,507
2.0457093580007495,1936,1367,506
2.0484041970012186,1931,1322,474
2.0510987440011377,1998,1389,539
2.053795791000084,2052,1421,544
2.056498088000808,2033,1437,553
2.059184510000705,1990,1462,562
2.0618791400011105,1962,1379,496
2.0645753120006702,1938,1374,505
2.0672675670011813,1934,1338,487
2.071203241999683,1935,1343,502
2.0739167890005774,2064,1417,548
2.076613211000222,2046,1431,550
2.0793052580011135,2000,1456,559
2.082000137999785,1967,1377,498
2.0846986430005927,1946,1371,505
2.087393690000681,1935,1335,483
2.090124487000139,1937,1346,502
2.0928224090002914,2047,1411,544
2.095517830999597,2043,1422,544
2.0982104610011447,2006,1456,565
2.10090667500117,1971,1402,525
2.103603555000518,1949,1373,503
2.1062967689995276,1937,1355,497
2.1089906489996793,1931,1308,468
2.11168448799981,2013,1403,545
2.114377035000871,2055,1415,542
2.1170742900012556,2021,1445,555
2.1197711290005827,1985,1434,539
2.1224690090002696,1958,1382,502
2.125165139001183,1942,1371,509
2.1278571450002346,1932,1330,483
2.13054881700009,1978,1374,527
2.1332391970008757,2096,1430,553
2.1359324519999063,2082,1445,551
2.1386247490008827,2031,1482,576
2.141320213000654,1983,1407,511
2.1440148020010383,1954,1387,511
2.1467078480000055,1936,1360,497
2.1494028540000727,1934,1327,486
2.1520966090010916,2051,1415,555
2.154789072999847,2070,1427,543
2.1574827450003795,2032,1457,561
2.1601753329996427,1989,1431,537
2.1628650889997516,1955,1383,506
2.1655596359996707,1938,1375,507
2.168252098999801,1934,1328,481
2.170943396000439,1981,1383,531
2.1736372350005695,2062,1423,547
2.1763300729999173,2037,1438,550
2.1790217039997515,2002,1472,576
2.181716334000157,1968,1387,506
2.184409923000203,1946,1376,509
2.187101261000862,1936,1343,492
2.1897933079999348,1933,1328,496
2.1924867300003825,2062,1415,549
2.1951772770007665,2068,1426,545
2.1978701570005796,2027,1460,563
2.2005628290007735,1987,1422,527
2.203252250999867,1954,1381,506
2.2059446729999763,1939,1367,511
2.208638512000107,1929,1319,476
2.211329683999793,2006,1394,545
2.2140255640006217,2065,1424,543
2.216720153001006,2038,1443,553
2.2194121169995924,2000,1463,561
2.2221294139999372,1965,1374,496
2.2248204610004905,1943,1376,509
2.2275122160008323,1936,1339,486
2.2302200960002665,1939,1351,510
2.2329118510006083,2094,1424,551
2.2356023980009923,2094,1442,550
2.238292903999536,2036,1478,574
2.240987741999561,1991,1419,528
2.2436839140009397,1956,1387,507
2.2463762950010278,1937,1363,505
2.2490680080009042,1929,1314,470
2.2517581390002306,2043,1417,550
2.2544461020006565,2087,1437,546
2.257139606999772,2059,1459,560
2.2598331540011714,2002,1458,556
2.2625247850010055,1966,1391,507
2.265218956999888,1946,1380,511
2.26791100400078,1931,1335,482
2.270599301000402,1971,1370,528
2.2732935980002367,2067,1425,551
2.2759896860006847,2058,1437,552
2.2786819000011747,2016,1472,575
2.281376947001263,1973,1402,511
2.2840699940006743,1949,1381,505
2.2867605820010795,1936,1355,496
2.2894530040011887,1931,1318,482
2.292147092999585,2037,1410,549
2.2948383069997362,2064,1424,544
2.2975321040012204,2028,1453,560
2.300226859000759,1984,1429,540
2.302919448000466,1957,1379,502
2.305613828000787,1940,1372,507
2.3083091660009813,1933,1326,479
2.311001838001175,2000,1389,529
2.313694635000502,2079,1428,547
2.316389641000569,2063,1446,551
2.319078979000551,2011,1478,575
2.321772901001168,1975,1392,504
2.3244666980008333,1946,1375,503
2.3271655370008375,1935,1349,495
2.329857833999995,1934,1334,495
2.33255054700021,2062,1419,547
2.335239719001038,2071,1429,543
2.33793043300102,2029,1461,563
2.3406264380009816,1987,1423,528
2.3433178600007523,1959,1382,503
2.3460091990000365,1937,1364,506
2.348701663000611,1935,1319,473
2.3513920010009315,2013,1395,541
2.3541182150001987,2067,1426,541
2.3568134699999064,2037,1446,555
2.3595296010007587,1999,1463,563
2.362221731000318,1962,1386,499
2.3649146530005964,1947,1375,511
2.3676084079997963,1936,1339,485
2.3703006630003074,1942,1351,509
2.3729951690002054,2069,1423,545
2.375689215999955,2069,1431,546
2.3783796380012063,2022,1469,571
2.381072600999687,1979,1410,523
2.3837653570008115,1953,1381,511
2.386453987001005,1936,1360,505
2.389145909000945,1931,1311,474
2.3918399140002293,2038,1412,550
2.3945294610002748,2082,1427,545
2.397222675001103,2039,1456,560
2.3999158469996473,1997,1455,550
2.402608185000645,1965,1385,499
2.4053034410007967,1945,1377,511
2.4079969040012656,1935,1333,483
2.4106888260012056,1983,1370,527
2.4133825820008497,2102,1431,553
2.416074587001276,2087,1450,550
2.4187740920006036,2033,1485,576
2.4214696810013265,1986,1413,511
2.424160311000378,1953,1386,511
2.4268507750002755,1936,1353,494
2.4295422380000673,1931,1327,486
2.4322338689999015,2031,1412,549
2.434924082001089,2055,1424,544
2.4376147130005847,2021,1451,560
2.4403292599999986,1983,1430,538
2.4430295570000453,1957,1378,503
2.445727395001086,1940,1371,503
2.44842298399999,1935,1325,477
2.4511150720009027,1997,1381,529
2.4538080359998276,2071,1425,546
2.4565028329998313,2052,1442,553
2.4591940049995173,2001,1475,578
2.461886635001065,1971,1391,506
2.4645815160001803,1949,1378,511
2.467276438001136,1920,1337,481
2.469971943000928,1932,1331,496
2.4726645310001913,2029,1408,546
2.4754020370000944,2034,1417,542
2.478158792000613,2007,1451,562
2.480859548000808,1972,1408,527
2.4835515530012344,1950,1374,502
2.4862395580003067,1938,1360,500
2.4889308550009446,1933,1312,470
2.491621360000863,2004,1392,539
2.4943087410010776,2047,1419,539
2.4969968710011017,2027,1438,556
2.4996913350005343,1990,1456,559
2.5023810479997337,1962,1377,496
2.505071804000181,1942,1372,503
2.5077622669996344,1936,1337,485
2.5104500230008853,1937,1351,507
2.5131392780003807,2042,1409,540
2.515829116000532,2036,1421,539
2.518517372000133,2006,1457,568
2.521206835001067,1968,1403,526
2.523896173999674,1952,1375,508
2.5265837630013266,1943,1359,498
2.5292706430009275,1920,1286,449
2.531957315000909,2034,1411,550
2.534644653000214,2074,1428,544
2.5373311590010417,2032,1454,560
2.540019456000664,1989,1453,554
2.54270741900109,1953,1382,503
2.5453967160010507,1934,1373,509
2.5480865970002924,1923,1329,480
2.550773435001247,1958,1360,522
2.5534613150011864,2043,1414,541
2.5561507790007454,2032,1422,542
2.5588370340010442,1997,1458,569
2.561524290000307,1968,1392,511
2.5642150870007754,1945,1373,507
2.566904508999869,1936,1346,497
2.5695942639995337,1931,1313,480
2.572282686000108,2015,1402,544
2.5749702740013163,2043,1415,540
2.5776603630001773,2017,1442,559
2.5803489930003707,1984,1427,538
2.583035874000416,1959,1376,496
2.5857250460012438,1942,1369,510
2.5884129260011832,1936,1327,479
2.5910989730000438,1973,1370,528
2.593786686000385,2032,1410,544
2.5964773169998807,2017,1423,545
2.599165947000074,1990,1459,573
2.6018562860008387,1959,1380,506
2.6045471240013285,1946,1373,507
2.6072364629999356,1933,1344,494
2.6099254680011654,1932,1322,491
2.6126145150010416,2029,1407,545
2.6153012289996695,2039,1415,537
2.61798973400073,2013,1446,560
2.620678156001304,1977,1415,533
2.623362911001095,1958,1375,501
2.626052667001204,1939,1365,500
2.6287507970009756,1935,1322,474
2.6314693439999246,2000,1377,528
2.6341595579997374,2064,1422,542
2.636849896000058,2034,1440,553
2.6395368600005895,2000,1468,567
2.642223365000973,1966,1386,503
2.644912245001251,1948,1377,510
2.6475995420005347,1934,1343,489
2.650285548001193,1934,1340,499
2.65297380300035,2032,1409,544
2.655679016999784,2035,1420,542
2.658388855001249,2003,1454,563
2.661085402000026,1974,1407,523
2.6637751159996697,1948,1372,502
2.6664647460002016,1936,1359,498
2.669154750999951,1934,1311,470
2.671843965001244,2018,1399,542
2.6745324700004858,2059,1423,543
2.677222891999918,2026,1441,555
2.679909898000915,1991,1454,560
2.682597695000368,1958,1379,501
2.6852861999996094,1942,1375,511
2.6879755379995913,1936,1337,489
2.690664793999531,1947,1357,511
2.693355841000084,2055,1414,543
2.6960479709996434,2044,1427,539
2.698737810000239,2009,1464,569
2.7014276900008554,1971,1405,511
2.706042781999713,1951,1376,509
2.7087390790002246,1934,1313,476
2.7114674180011207,2011,1383,531
2.714160757001082,2091,1426,547
2.716853011999774,2064,1449,557
2.7195426010002848,2015,1481,572
2.722233356000288,1974,1392,507
2.7249250280001434,1951,1381,510
2.727614032999554,1935,1347,492
2.730301830000826,1933,1341,498
2.7329898349998984,2071,1424,549
2.735678173999986,2080,1434,543
2.7383657210011734,2032,1471,569
2.7410538100011763,1988,1421,528
2.7437416480006505,1958,1386,509
2.746430111999871,1938,1369,509
2.749119784000868,1935,1317,476
2.7518085810006596,2032,1406,549
2.7544970030012337,2096,1437,548
2.7571873830002005,2062,1458,558
2.75987634699959,2012,1472,563
2.7625625190012215,1969,1393,505
2.7652496909995534,1945,1383,511
2.7679379460005293,1935,1344,492
2.7706234930010396,1942,1357,508
2.773310915001275,2066,1424,546
2.7759980030004954,2067,1431,543
2.778684217000773,2025,1472,570
2.7813718890010932,1982,1411,528
2.7840609779996157,1955,1381,509
2.7867493989997456,1936,1360,505
2.789437987999918,1930,1312,471
2.7921260769999208,2046,1412,551
2.7948125820003042,2091,1433,545
2.7975010459995246,2061,1461,559
2.8001885510002467,2000,1459,551
2.8028758899999957,1968,1392,505
2.805563769999935,1943,1380,510
2.808252900000298,1934,1337,487
2.810939947001316,1968,1371,527
2.813628369000071,2093,1430,551
2.8163618329999736,2077,1445,547
2.8190531710006326,2030,1481,574
2.821744218001186,1981,1408,511
2.8244333069997083,1952,1385,507
2.827119354000388,1936,1356,494
2.829808401000264,1930,1319,481
2.8324954060008167,2057,1419,553
2.835182036000333,2078,1433,548
2.8378700419998495,2042,1458,561
2.840558672000043,1996,1440,544
2.843245301999559,1965,1385,509
2.845935348999774,1941,1375,511
2.8486233960011305,1934,1328,483
2.851312777000203,1997,1385,533
2.8540031150005234,2074,1428,547
2.856691454000611,2057,1443,553
2.859379084000466,2006,1477,576
2.862103756000579,1973,1393,506
2.864795261000836,1951,1381,511
2.8675170580008853,1936,1347,496
2.870208480000656,1930,1329,494
2.8728980270007014,2055,1415,554
2.8755862830003025,2065,1426,543
2.8782732880008552,2029,1459,562
2.88096121000126,1985,1424,529
2.8836509650009248,1955,1380,506
2.8863405539996165,1941,1369,505
2.889039892001165,1931,1322,473
2.891735188999519,2029,1398,543
2.894423903000643,2099,1439,550
2.897115241999927,2073,1456,560
2.899803371999951,2021,1481,565
2.9024919610001234,1975,1396,503
2.905182174001311,1943,1387,511
2.9078715539999394,1936,1347,495
2.9105625600004714,1936,1345,503
2.9132511480001995,2095,1426,553
2.915941778999695,2095,1445,549
2.9186314510006923,2043,1478,573
2.921318788999997,1994,1424,528
2.9240076700007194,1962,1389,511
2.9266947579999396,1937,1366,506
2.929383388000133,1931,1319,471
2.9320715600006224,2047,1413,545
2.9347573570012173,2103,1441,548
2.937443863000226,2074,1466,560
2.940146826000273,2016,1471,560
2.9428334980002546,1971,1395,511
2.945523461999983,1947,1387,511
2.9482156340000074,1935,1342,487
2.950904306000666,1967,1366,511
2.953594978000183,2095,1434,551
2.9562817750011163,2083,1447,553
2.958967821999977,2032,1480,576
2.9616569520003395,1984,1414,524
2.964344207000977,1955,1389,509
2.9670320879995415,1936,1360,497
2.969721675999608,1934,1317,481
2.9724097230009647,2036,1414,550
2.9751043950000167,2076,1427,543
2.977794067001014,2042,1456,562
2.9804860719996213,1997,1449,550
2.9831735780007875,1963,1387,507
2.9858618329999445,1945,1377,511
2.9885528800004977,1931,1332,483
2.991239969000162,1970,1373,527
2.9939304319996154,2055,1418,543
2.996619104000274,2038,1429,546
2.999305318000552,2000,1467,570
3.0019929059999413,1968,1392,507
3.004679577999923,1949,1373,511
3.007418625000355,1936,1349,495
3.010173255999689,1934,1326,485
3.0128640940001787,2059,1418,551
3.0155558500009647,2077,1430,542
3.0182433549998677,2032,1460,561
3.02093406899985,1991,1427,530
3.0236231990002125,1961,1385,502
3.0263114959998347,1941,1371,502
3.029032960001132,1933,1326,477
3.0317525070004194,2000,1390,531
3.0344508870002755,2077,1427,551
3.037143475999983,2060,1449,560
3.0398329390009167,2010,1474,567
3.0425236110004334,1973,1392,501
3.0452141580008174,1950,1382,511
3.047910163000779,1936,1344,493
3.050600710001163,1935,1344,501
3.0532965069996862,2064,1419,548
3.0559896790000494,2065,1427,545
3.0586816009999893,2021,1463,567
3.061373939999612,1980,1410,528
3.0640678199997637,1953,1379,505
3.0667606170009094,1936,1361,499
3.0694553310004267,1931,1314,474
3.0721472940003878,2039,1408,546
3.0748428410006454,2097,1438,547
3.0775393880012416,2065,1460,559
3.0802323940006318,2013,1469,560
3.0829228990005504,1972,1392,506
3.085617196000385,1945,1382,511
3.0883165350005584,1935,1341,486
3.091009622999991,1968,1366,511
3.093701878000502,2105,1437,551
3.0963969670010556,2096,1454,553
3.0990862640010164,2041,1486,576
3.1017797280001105,1990,1421,528
3.1044731500005582,1954,1391,511
3.1071661969999695,1937,1363,499
3.1098628689996985,1931,1318,480
3.1125560410000617,2053,1422,555
3.1152456290001282,2088,1434,545
3.1179390930010413,2047,1461,561
3.120633140000791,1999,1447,547
3.1233251450012176,1967,1390,505
3.126018066999677,1941,1377,507
3.128711196999575,1934,1331,480
3.1314037030006148,1987,1385,528
3.1341310830011935,2094,1431,547
3.13682629700088,2071,1450,554
3.1395209270012856,2019,1482,576
3.1422143910003797,1980,1401,511
3.1449067710000236,1950,1375,507
3.14759635900009,1938,1355,496
3.1502872809996916,1933,1328,491
3.152988578000077,2073,1424,553
3.155688917000589,2093,1437,546
3.1583833810000215,2045,1469,566
3.161075844000152,1995,1434,540
3.163771474999521,1959,1387,509
3.1664617719998205,1942,1375,509
3.169154569000966,1933,1324,477
3.171851532000801,2000,1392,535
3.1745461210011854,2067,1426,549
3.1772415840005124,2039,1444,554
3.179934797999522,2000,1468,567
3.1826293030007946,1967,1387,501
3.1853237670002272,1947,1379,509
3.1880180219995964,1935,1343,486
3.1907088610005303,1934,1342,497
3.1934029910007666,2072,1422,546
3.196096038000178,2071,1426,544
3.198787335000816,2029,1467,568
3.2014816740011156,1984,1418,525
3.2041794289998506,1952,1382,510
3.206873518000066,1939,1362,501
3.2095690650003235,1936,1318,471
3.212264320000031,2041,1409,544
3.214956575000542,2098,1438,546
3.2176502470010746,2064,1459,560
3.2203447940009937,2015,1467,560
3.2230382159996225,1972,1393,502
3.2257332219996897,1951,1387,511
3.2284276020000107,1938,1344,491
3.231119273999866,1959,1363,511
3.233809862000271,2065,1424,548
3.236500992999936,2064,1435,547
3.2391916230008064,2014,1472,570
3.241882545000408,1972,1405,525
3.2445717999999033,1946,1379,507
3.2472602220004774,1917,1344,486
3.24994960299955,1922,1307,477
3.252638191001097,2021,1405,546
3.2553281130003597,2057,1421,541
3.258020993000173,2030,1447,559
3.260735874000602,1987,1438,546
3.263479504001225,1962,1379,503
3.2661787180004467,1939,1372,506
3.2688698900001327,1933,1327,479
3.271560020000834,1993,1379,527
3.2742497340004775,2086,1427,548
3.2769454890003544,2067,1445,550
3.2796444940013316,2016,1479,576
3.28233524999996,1977,1395,509
3.285029337999731,1952,1382,508
3.2877228440011095,1936,1351,496
3.2904123070002242,1936,1328,496
3.2931053539996356,2034,1409,549
3.295802108999851,2051,1421,544
3.2984986980009126,2013,1454,561
3.3011889120007254,1977,1419,531
3.3038817920005386,1953,1373,502
3.3065720060003514,1936,1362,503
3.309266344000207,1920,1307,463
3.3119599750007183,2011,1389,538
3.3146508970003197,2085,1429,549
3.3173427769997943,2064,1450,557
3.320036656999946,2014,1475,561
3.322726121001324,1974,1392,503
3.3254197090009256,1951,1383,510
3.328115797999999,1935,1343,493
3.330811595000341,1935,1344,503
3.3335051000012754,2073,1422,550
3.33619835600075,2079,1435,547
3.3388900280006055,2032,1469,570
3.341579616000672,1985,1415,528
3.3442702049997024,1957,1385,507
3.3469610850006575,1938,1365,505
3.3496567990005133,1934,1316,473
3.3523507210011303,2035,1410,542
3.355042184000922,2091,1434,542
3.3577373560001433,2059,1457,558
3.3604320280010143,2003,1466,559
3.363149450000492,1967,1387,503
3.36584395600039,1941,1381,511
3.3685392110000976,1934,1339,487
3.371231508001074,1966,1363,511
3.3739256380013103,2079,1424,548
3.376622851999855,2068,1438,547
3.3793148570002813,2019,1473,575
3.3820080290006445,1979,1408,511
3.3847029090011347,1956,1382,511
3.3873937480002496,1936,1359,496
3.3901183779998973,1931,1315,480
3.392812217000028,2039,1413,549
3.3955311390000134,2075,1425,545
3.3982235610001226,2033,1456,560
3.400921649999873,1991,1437,544
3.4036245719998988,1959,1385,507
3.4063187440006004,1942,1375,508
3.4090142069999274,1934,1328,479
3.411708379000629,1987,1382,528
3.4144008430012036,2064,1424,542
3.4170963060005306,2045,1435,547
3.4197886450001533,2005,1472,574
3.4224816500009183,1970,1392,502
3.4251768220001395,1942,1377,510
3.4278698279995297,1935,1346,495
3.43056075000095,1932,1328,493
3.4332553799995367,2061,1415,547
3.43594671900064,2069,1427,541
3.438637639999797,2029,1459,562
3.441326354000921,1991,1424,530
3.4440168180008186,1959,1381,503
3.4467066150009487,1940,1366,503
3.4493968280003173,1934,1323,473
3.452086708999559,2004,1391,533
3.4547770469998795,2059,1424,544
3.457465511000919,2034,1442,551
3.4601590990005207,1998,1465,562
3.4628488130001642,1964,1383,500
3.4655399849998503,1943,1375,507
3.468234157000552,1936,1341,491
3.470926121000957,1935,1343,503
3.473622626001088,2036,1411,545
3.4763158400000975,2037,1421,539
3.47900738700082,2006,1455,566
3.481710934000148,1971,1407,526
3.484411438999814,1949,1374,503
3.4871054440009175,1938,1354,501
3.4898025740003504,1933,1311,471
3.4925002880008833,2018,1402,543
3.495191877000252,2063,1424,543
3.4978876740005944,2033,1446,560
3.5005830959999003,1991,1455,556
3.5032744760010246,1963,1383,506
3.5059687310003937,1940,1376,511
3.5086650280009053,1935,1334,487
3.5113586999996187,1949,1360,511
3.514061830999708,2046,1413,544
3.516758628000389,2039,1424,544
3.5194795910010725,2005,1461,570
3.5221741380009917,1970,1399,511
3.5248707680002553,1947,1374,507
3.527565690001211,1934,1351,496
3.530258861999755,1930,1314,481
3.532953993000774,2034,1409,547
3.5356465810000373,2066,1424,542
3.5383384200013097,2029,1454,560
3.5410306339999806,1990,1434,531
3.5437291390007886,1955,1381,498
3.546423728001173,1941,1374,506
3.549118107999675,1931,1325,475
3.5518143219997,1990,1378,529
3.5545070770003804,2066,1424,545
3.557201831999919,2054,1439,543
3.559896836999542,2010,1473,576
3.5625884260007297,1973,1392,508
3.565281639999739,1947,1379,509
3.567975103000208,1936,1347,491
3.5706675250003173,1927,1328,491
3.573363822000829,2030,1407,543
3.5760570359998383,2037,1414,537
3.578747416000624,2006,1450,560
3.5814418379995914,1973,1413,528
3.5841395930001454,1955,1371,499
3.58683418200053,1931,1362,499
3.589530104000005,1936,1318,473
3.5922236509995855,1999,1389,534
3.594909405999715,2047,1418,542
3.597602578000078,2023,1432,547
3.600300000000061,1989,1458,560
3.6029909219996625,1963,1377,496
3.6056874690002587,1945,1371,508
3.608382349000749,1934,1338,487
3.6110741880002024,1936,1343,498
3.6137704430002486,2092,1424,547
3.6164684490013315,2087,1439,545
3.61916399599977,2038,1473,572
3.621856793000916,1988,1420,525
3.6245514649999677,1962,1387,506
3.6272432200003095,1938,1366,503
3.6299377670002286,1930,1316,471
3.6326301059998514,2038,1410,545
3.6353221940007643,2080,1431,543
3.638013908001085,2046,1456,559
3.640704788000221,2000,1457,557
3.643396543000563,1966,1387,503
3.646119674000147,1943,1378,507
3.64881255399996,1934,1335,479
3.6515288509999664,1964,1363,511
3.654221648001112,2063,1423,544
3.6569124449997616,2047,1428,545
3.659606409000844,2006,1467,567
3.66229941399979,1970,1399,510
3.66499458600083,1952,1377,510
3.6676902580002206,1936,1354,499
3.6703763879995677,1927,1317,483
3.673069435000798,2059,1417,550
3.6757652739997866,2083,1431,547
3.678457903999515,2038,1458,561
3.6811552430008305,1994,1440,543
3.6838489980000304,1962,1387,503
3.6865400450005836,1941,1377,511
3.6892355920008413,1934,1329,482
3.691930056000274,1987,1381,529
3.6946216020005522,2058,1422,546
3.6973151080001116,2035,1435,550
3.7000088630011305,2001,1471,575
3.702700702000584,1968,1389,506
3.705394915001307,1943,1375,511
3.7080902960005915,1934,1344,492
3.7107848010000453,1929,1328,491
3.713480681000874,2061,1415,551
3.716175937001026,2064,1424,542
3.718868359001135,2031,1457,563
3.7215647810007795,1987,1424,529
3.724258911001016,1957,1381,502
3.726950749000025,1938,1367,506
3.729643880000367,1935,1321,476
3.7323370930007513,2025,1397,540
3.7350295989999722,2093,1433,544
3.7377209790010966,2066,1456,558
3.7404106089998095,2014,1479,565
3.7431044060012937,1970,1391,503
3.745796037001128,1947,1383,511
3.7484857920007926,1934,1347,494
3.751175504999992,1935,1348,506
3.753870177000863,2062,1419,547
3.756564266001078,2063,1427,544
3.7592566880011873,2017,1450,557
3.761953610001001,1978,1400,510
3.7646508239995455,1951,1370,496
3.7673416620000353,1936,1355,492
3.7700352930005465,1927,1307,459
3.772729423000783,2067,1411,541
3.7754231359995174,2125,1443,542
3.7781466840006033,2083,1471,560
3.780843313999867,2021,1471,555
3.783537401999638,1972,1397,498
3.786227491000318,1941,1386,506
3.7889178300010826,1935,1355,493
3.791611501999796,1959,1377,528
3.794312590000118,2044,1425,549
3.7970053870012634,2032,1431,546
3.7996979340005055,2000,1469,571
3.8023878980002337,1968,1399,511
3.8050799860011466,1948,1375,507
3.8077745330010657,1936,1353,496
3.8104670390002866,1927,1314,482
3.8131614190006076,2043,1398,548
3.8158543829995324,2072,1421,544
3.81858359600119,2032,1451,560
3.821280685000602,1994,1431,538
3.8239730650002457,1959,1379,503
3.8266640710007778,1940,1369,507
3.8293565759995545,1935,1325,483
3.8320493730007,1987,1381,528
3.834739628000534,2062,1422,545
3.8374320500006434,2039,1435,549
3.8401221390013234,2002,1469,574
3.842811894000988,1968,1389,505
3.845503066000674,1943,1377,511
3.8481936549997044,1932,1344,494
3.850885535000998,1931,1328,494
3.8535783320003247,2065,1419,551
3.8562706709999475,2082,1430,543
3.8589625090007758,2034,1463,561
3.861657348001245,1989,1425,528
3.864349769999535,1962,1387,503
3.867040025001188,1937,1367,499
3.8697396549996483,1934,1322,474
3.872438743999737,2002,1393,531
3.8751322910011368,2058,1424,545
3.8778261710012885,2032,1442,555
3.880519677000848,1997,1463,563
3.8832086399997934,1962,1381,502
3.885899729000812,1943,1375,511
3.8885926510010904,1935,1350,492
3.891281948001051,1935,1351,503
3.8939756609997858,2051,1419,551
3.8966684580009314,2054,1425,544
3.8993599220011674,2013,1463,570
3.902064801999586,1978,1407,526
3.9047612659996958,1950,1377,507
3.9074865210004646,1937,1360,502
3.9101804430010816,1929,1312,471
3.9128737400005775,2037,1409,547
3.915568661999714,2085,1429,546
3.9182616680009232,2039,1445,549
3.9209555060006096,2002,1456,556
3.923648845000571,1968,1390,509
3.9263390579999395,1945,1381,511
3.9290333970002393,1934,1336,483
3.931725569000264,1971,1367,523
3.9344188240011135,2081,1426,547
3.9371142460004194,2073,1437,547
3.939807210001163,2021,1475,571
3.9434607590010273,1981,1407,511
3.9461619310004608,1951,1387,511
3.948857728000803,1935,1335,487
3.95155531599994,1951,1357,511
3.9542477800005145,2061,1419,549
3.956940119000137,2053,1426,544
3.959634499000458,2012,1466,567
3.962324546000673,1973,1397,511
3.9650164260001475,1953,1379,507
3.9677108060004684,1939,1360,497
3.9704007700001966,1935,1310,475
3.973094859000412,2027,1402,546
3.9757884470000135,2061,1422,547
3.9784802030007995,2026,1447,560
3.981177583000317,1982,1439,546
3.983871172000363,1960,1378,501
3.986562052001318,1936,1371,507
3.9892572660010046,1926,1328,479
3.9919513130007545,1959,1362,526
3.9946409430012864,2032,1409,542
3.9973360730000422,2023,1424,546
4.000031703000786,1995,1456,565
4.002722541999901,1966,1387,506
4.005415880999863,1947,1369,509
4.008166552999683,1936,1344,495
4.010896891000812,1931,1320,482
4.013593063000371,2046,1410,547
4.016289485000016,2064,1424,541
4.018979366001076,2029,1456,560
4.021675829000742,1985,1424,533
4.024370500999794,1960,1379,503
4.027060464999522,1938,1367,508
4.029754387000139,1935,1323,478
4.032448891999593,2014,1392,535
4.035139022000294,2084,1431,544
4.03784731900123,2064,1450,555
4.040560866000305,2010,1478,570
4.043259121999654,1971,1392,503
4.0459510020009475,1949,1381,510
4.048653257001206,1936,1344,491
4.051347137999983,1935,1344,505
4.0540407259995845,2055,1419,550
4.0567373980011325,2055,1424,544
4.059462195000378,2013,1460,570
4.062157701000615,1979,1408,527
4.064855206001084,1953,1371,500
4.067551128000559,1938,1361,503
4.070245717000944,1934,1314,473
4.072942222001075,2028,1405,545
4.075637601999915,2067,1425,546
4.078332482000405,2036,1451,557
4.081024987999626,1999,1455,549
4.0837203259998205,1966,1385,502
4.086410665000585,1942,1376,508
4.089105379000102,1935,1331,484
4.091800467000212,1959,1360,511
4.094492805999835,2045,1417,550
4.09718772800079,2037,1430,546
4.099880317000498,2004,1462,574
4.102571530000205,1968,1395,510
4.105265784999574,1949,1374,507
4.107963124000889,1938,1354,496
4.110655628999666,1933,1313,479
4.113353009999628,2017,1405,544
4.1160482650011545,2045,1417,539
4.118739978999656,2016,1442,560
4.1214354840012675,1980,1425,541
4.124129739000637,1955,1372,499
4.126821661000577,1942,1367,506
4.12951774999965,1934,1325,479
4.132212546999654,1981,1378,528
4.134902843999953,2064,1418,545
4.137599682000655,2045,1434,549
4.140295270999559,2002,1471,576
4.142987401000937,1970,1391,508
4.1456891569996515,1946,1376,511
4.148383829000522,1936,1349,495
4.1510753340007795,1931,1328,496
4.15376804799962,2011,1405,547
4.156461803000639,2024,1411,540
4.159153349999542,1999,1441,560
4.161846562999926,1968,1409,528
4.164541152000311,1950,1367,503
4.167234116001055,1936,1354,496
4.1699295380003605,1933,1315,477
4.172622960000808,2010,1390,535
4.175316132001171,2080,1427,545
4.178010761999758,2061,1449,555
4.180706309000016,2005,1472,562
4.183397730999786,1971,1391,502
4.18612190299973,1943,1377,511
4.188817742000538,1936,1342,489
4.1915122469999915,1938,1347,506
4.194204127001285,2064,1421,553
4.196899132000908,2069,1430,545
4.199592345999918,2026,1465,569
4.202285351000683,1981,1413,525
4.204980648000856,1957,1383,506
4.2076756120004575,1936,1362,499
4.21036765899953,1934,1315,471
4.213060580999809,2034,1411,546
4.215755295001145,2081,1430,545
4.218447675000789,2042,1456,560
4.221142137999777,2000,1456,557
4.22383689399976,1965,1387,502
4.226530773999912,1947,1379,511
4.22922665400074,1936,1338,485
4.231920410000384,1966,1362,511
4.2346143320010015,2064,1424,547
4.237310504000561,2057,1435,545
4.24000609200084,2013,1470,574
4.24270013900059,1975,1406,511
4.245393811001122,1951,1379,509
4.248091108000153,1934,1351,496
4.2507849049998185,1933,1318,481
4.253478702001303,2059,1417,554
4.256175124000947,2075,1430,548
4.258865379000781,2043,1458,562
4.261555967999811,1998,1441,543
4.264252557000873,1963,1389,511
4.266946061999988,1943,1377,511
4.269643442001325,1931,1326,474
4.272338906001096,1984,1385,528
4.275030078000782,2064,1424,542
4.277724333000151,2043,1437,549
4.280446672000835,2001,1472,575
4.283138302000225,1968,1389,505
4.285832182000377,1946,1378,509
4.2885251460011204,1936,1347,490
4.291216110001187,1934,1328,492
4.293908740000916,2041,1410,547
4.296601162001025,2062,1422,542
4.299293209000098,2021,1456,563
4.301989130999573,1984,1422,528
4.304684470000211,1953,1376,506
4.307375058000616,1936,1363,506
4.310096479999629,1932,1318,473
4.312792276999971,2000,1391,537
4.3155114490000415,2047,1419,544
4.318204954000976,2021,1435,554
4.32089925100081,1990,1457,559
4.323594632000095,1958,1375,498
4.32628417900014,1941,1370,507
4.328977725999721,1935,1337,484
4.331675564000761,1937,1345,503
4.334370153001146,2054,1414,547
4.3370638670003245,2053,1424,539
4.339758747000815,2010,1459,563
4.34244983499957,1977,1406,524
4.3451415070012445,1953,1375,504
4.347833054000148,1940,1359,498
4.35052510100104,1929,1309,468
4.353216898000028,2019,1403,549
4.35591215400018,2057,1420,542
4.358602742000585,2030,1445,557
4.361297163999552,1987,1446,554
4.3639986279995355,1962,1379,503
4.366693592000956,1939,1372,506
4.369389055000283,1935,1331,480
4.372085060000245,1966,1358,511
4.374776857001052,2075,1424,547
4.3774731129997235,2065,1436,545
4.380166910001208,2014,1472,571
4.382858414999646,1979,1403,511
4.385553254000115,1952,1381,509
4.3882475509999495,1934,1357,496
4.390938055999868,1933,1322,480
4.3936328110012255,2032,1411,550
4.396329567000066,2058,1424,538
4.399023363001106,2026,1451,553
4.40172028500092,1985,1430,539
4.404415249000522,1958,1377,501
4.407106171000123,1941,1366,502
4.4098003010003595,1932,1325,478
4.412492639999982,1990,1383,528
4.415184187000705,2080,1425,546
4.417882151001322,2064,1445,551
4.4205787390001205,2018,1479,577
4.423270410999976,1973,1393,507
4.425964750000276,1950,1383,510
4.4286612550004065,1936,1347,495
4.43135413500022,1933,1332,496
4.434048974000689,2033,1410,541
4.43674443800046,2043,1422,539
4.439462567999726,2010,1454,561
4.442158948000724,1979,1413,528
4.444850744999712,1954,1374,504
4.447543001000668,1937,1362,502
4.450232756000332,1930,1315,475
4.452924385999722,1998,1392,535
4.455614766000508,2045,1415,538
4.458307521999814,2022,1437,548
4.461002402000304,1991,1456,560
4.463697449000392,1961,1376,501
4.466386538000734,1943,1373,507
4.469080042999849,1933,1334,487
4.471774215000551,1936,1344,500
4.474462595000659,2030,1401,534
4.4771655590011505,2023,1418,538
4.479867148000267,1999,1453,565
4.482564527999784,1968,1398,511
4.485261658001036,1937,1358,495
4.487955913000405,1936,1353,497
4.490650919000473,1932,1306,471
4.493347382000138,2032,1406,546
4.496040846001051,2070,1424,541
4.498731018000399,2037,1451,559
4.501425440001185,1995,1449,551
4.5041183619996445,1964,1377,500
4.506809825999881,1942,1371,506
4.509502664001047,1931,1329,480
4.512196544001199,1965,1363,522
4.514886758001012,2065,1421,544
4.517580888001248,2064,1434,543
4.520271102001061,2016,1471,575
4.522961316000874,1977,1402,511
4.525655363000624,1948,1378,509
4.528349367999908,1936,1357,497
4.531039748000694,1932,1318,480
4.5337360040011845,2038,1413,550
4.536428508999961,2068,1424,543
4.53912013900117,2032,1455,561
4.541816519000349,1993,1434,540
4.544510608000564,1966,1381,501
4.547201946999849,1939,1371,502
4.549893077000888,1931,1325,476
4.5525857909997285,1998,1383,527
4.555276921000768,2080,1426,550
4.557966342999862,2057,1442,548
4.560661057001198,2010,1477,576
4.563351644999784,1969,1392,502
4.566045317000317,1951,1380,509
4.56873819700013,1934,1347,494
4.571459953000158,1928,1328,491
4.574153458001092,2056,1415,546
4.576848922000863,2062,1420,534
4.57954092700129,2022,1457,561
4.5822299320007005,1983,1420,528
4.584924229000535,1956,1377,503
4.587620485001025,1937,1363,503
4.590311865000331,1933,1320,471
4.593006869999954,2022,1395,532
4.595701500000359,2086,1429,545
4.598391506000553,2062,1453,557
4.601085469001191,2009,1470,563
4.603814891001093,1970,1391,505
4.606518855000104,1946,1383,509
4.609214735000933,1935,1343,487
4.611908365999625,1941,1349,506
4.614600328999586,2041,1413,542
4.61729412600107,2038,1423,542
4.620026382001015,2009,1457,567
4.622722387000977,1971,1406,523
4.625416975999542,1951,1375,507
4.628111898000498,1935,1357,499
4.630804111000543,1934,1309,468
4.633498741000949,2045,1411,547
4.636192747000678,2094,1433,548
4.638883794001231,2061,1458,560
4.641577091000727,2002,1456,551
4.644266346000222,1968,1392,508
4.6469584759997815,1942,1381,511
4.6496488570010115,1932,1335,483
4.652340444999936,1969,1370,522
4.655032284001209,2051,1420,542
4.657724414000768,2036,1426,546
4.6604175030006445,2002,1463,574
4.663108382999781,1967,1392,511
4.665800930000842,1947,1374,509
4.668509019000339,1935,1350,496
4.671202274001189,1933,1319,484
4.673897820999628,2021,1405,544
4.676590368000689,2032,1413,538
4.679282707000311,2006,1437,550
4.681975170000442,1978,1424,530
4.6846725510004035,1950,1373,499
4.687365306001084,1939,1365,506
4.690069186000983,1931,1319,476
4.692763983000987,1971,1376,528
4.6954823630003375,2061,1419,543
4.698175659999833,2037,1431,550
4.700871041000937,1999,1471,575
4.703565670999524,1967,1386,505
4.706257175999781,1950,1377,510
4.708950098000059,1936,1345,492
4.711642229000063,1932,1334,495
4.714335401000426,2045,1411,545
4.717032656000811,2055,1423,537
4.71973016100128,2019,1456,562
4.722422500000903,1979,1413,523
4.725116171999616,1955,1374,503
4.727808634999747,1937,1361,501
4.730498431999877,1936,1313,471
4.733191854000324,2014,1395,540
4.735888360000899,2073,1424,543
4.738578782000332,2042,1446,557
4.741271662000145,2002,1463,560
4.743963126000381,1969,1389,503
4.7466525890013145,1949,1380,511
4.749344469000789,1936,1343,487
4.752035350000369,1950,1353,506
4.7547254800010705,2059,1418,548
4.757416110000122,2061,1427,544
4.760110782000993,2018,1463,567
4.762802287999875,1976,1408,511
4.7654974600009155,1948,1377,507
4.768192548001025,1924,1357,500
4.770883137000055,1925,1306,467
4.773577350000778,2019,1403,543
4.776270231001035,2059,1421,537
4.77896423600032,2029,1446,555
4.781661574999816,1988,1438,542
4.784355955000137,1961,1381,500
4.787046044000817,1940,1375,507
4.789740924001308,1936,1330,482
4.792434263001269,1975,1369,528
4.795126267999876,2073,1424,544
4.797818315000768,2063,1438,545
4.80051190300037,2015,1473,574
4.803203450001092,1978,1403,510
4.805897164000271,1951,1379,506
4.808591044000423,1941,1357,496
4.811282175000088,1936,1323,485
4.813975388000472,2038,1415,553
4.816669060001004,2065,1425,543
4.81936073200086,2029,1456,560
4.8220641130010335,1987,1434,537
4.8247586590005085,1962,1381,503
4.827477373000875,1941,1371,505
4.830179087000943,1935,1327,479
4.832872884000608,1996,1387,528
4.835567346999596,2065,1424,546
4.838255728000149,2042,1441,551
4.840950691001126,2000,1474,573
4.843644280001172,1966,1387,501
4.84633607700016,1943,1377,511
4.849027124000713,1934,1344,489
4.85171808800078,1930,1329,497
4.854408258999683,2044,1410,550
4.85710297300102,2053,1419,541
4.859796478000135,2016,1456,561
4.8624865250003495,1980,1415,527
4.86518007199993,1951,1377,503
4.867874077999659,1938,1360,503
4.8705638330011425,1935,1316,474
4.873256463000871,2017,1398,539
4.875946385000134,2070,1424,546
4.878635932000179,2039,1445,560
4.881329187001029,2000,1463,564
4.884021943000334,1966,1376,496
4.886711990000549,1950,1380,511
4.889406661999601,1936,1342,491
4.892099959000916,1945,1351,508
4.8947887560007075,2067,1422,549
4.897481553000034,2064,1429,543
4.900175558001138,2014,1466,573
4.902867355000126,1982,1409,527
4.9055601520012715,1954,1378,505
4.908252115001233,1927,1349,491
4.910946453999713,1934,1312,471
4.913637793000817,2033,1409,549
4.916333172999657,2081,1430,545
4.9190238030005276,2046,1456,561
4.921718433999558,2001,1456,555
4.924410106001233,1968,1391,508
4.9271004860001995,1942,1379,511
4.929792408000139,1935,1319,481
4.93248595499972,1974,1360,511
4.935176627001056,2070,1419,548
4.937868381999579,2063,1431,546
4.940569554000831,2015,1467,576
4.9432676840006025,1977,1399,511
4.9459616060012195,1949,1378,509
4.948653319999721,1937,1355,497
4.951350534000085,1931,1319,485
4.954048413999772,2034,1412,550
4.956742293999923,2063,1424,546
4.959464550000121,2030,1455,561
4.962158555001224,1985,1430,538
4.964855102000001,1961,1381,507
4.967551273999561,1943,1369,510
4.970242571000199,1936,1328,479
4.9729358260010486,1995,1382,531
4.975630248000016,2064,1424,545
4.978323712000929,2045,1440,550
4.981017924999833,2004,1475,570
4.983713888999773,1968,1389,505
4.986405436000496,1945,1371,506
4.989098983000076,1936,1345,495
4.9917921960004605,1930,1330,496
4.994483452001077,2067,1419,551
4.997179789999791,2072,1431,549
4.999874379000175,2032,1463,567
5.0025657590013,1986,1424,533
5.005258306000542,1958,1383,507
5.007961145000081,1937,1367,503
5.0107081919995835,1933,1319,474
5.013440864000586,2037,1408,544
5.016135869000209,2105,1438,553
5.018830125000022,2069,1462,560
5.021525838001253,2013,1473,568
5.02421971900003,1970,1394,507
5.026910849001069,1949,1386,511
5.0296043130001635,1935,1344,491
5.0322984009999345,1953,1360,511
5.034989906000192,2096,1431,555
5.037683828000809,2094,1446,553
5.040380084001299,2037,1484,574
5.04307092199997,1988,1423,528
5.045793885999956,1958,1387,511
5.048517057999561,1938,1365,505
5.05120947999967,1932,1313,478
5.053901110000879,2067,1423,553
5.056593241000883,2105,1441,548
5.059286038000209,2064,1469,564
5.061978417999853,2007,1456,553
5.0646742150001955,1969,1392,509
5.067364512000495,1947,1385,511
5.070071809001092,1936,1335,485
5.07277314699968,1984,1385,528
5.075498611000512,2075,1428,549
5.078192450000643,2059,1445,555
5.0808884970010695,2013,1475,576
5.083585585000037,1974,1396,511
5.086279757000739,1949,1381,510
5.088971929000763,1936,1346,491
5.0916676850010845,1931,1329,490
5.094357732001299,2061,1422,549
5.09705127900088,2071,1427,542
5.099746492000122,2030,1459,564
5.10244203900038,1985,1427,537
5.105142586000511,1958,1380,503
5.107841340999585,1938,1371,507
5.1105349299996305,1933,1325,475
5.113228394000544,2017,1393,538
5.115923191000547,2091,1436,551
5.118615821000276,2065,1455,560
5.121309535001274,2015,1479,575
5.12400283200077,1972,1392,505
5.126695754001048,1950,1383,511
5.129389216999698,1937,1346,494
5.132091306000802,1937,1341,505
5.13478764499996,2115,1437,559
5.137484941000366,2117,1456,555
5.140182197001195,2059,1488,578
5.1428749520000565,2000,1431,537
5.145572874000209,1966,1393,511
5.1482699629996205,1941,1376,509
5.150962134999645,1934,1323,474
5.153660890000538,2047,1419,550
5.156355979001091,2110,1449,551
5.159047983999699,2074,1470,563
5.161739073000717,2013,1472,563
5.164439120000679,1973,1397,511
5.167136083000514,1947,1388,511
5.169834379999884,1936,1344,493
5.172530969000945,1963,1365,524
5.17522314100097,2082,1430,556
5.177918938001312,2077,1442,551
5.180614234999666,2028,1478,576
5.183306323000579,1984,1411,511
5.186001703999864,1953,1387,510
5.188697334000608,1936,1360,500
5.191388463999829,1931,1311,475
5.194112053000936,2099,1431,558
5.196809392000432,2147,1458,559
5.19953006400101,2097,1489,574
5.202226444000189,2029,1472,555
5.204922615999749,1978,1406,511
5.2076192460008315,1951,1392,511
5.2103052100010245,1934,1340,487
5.212996964999547,1989,1392,530
5.215693762000228,2079,1435,553
5.218386726000972,2061,1449,557
5.2211139390001335,2011,1476,576
5.22380944500037,1973,1400,510
5.226501324999845,1953,1385,511
5.229195247000462,1935,1351,496
5.231890877001206,1933,1330,495
5.234585215999687,2082,1424,554
5.237279138000304,2095,1439,550
5.23997356000109,2054,1472,567
5.2426648150012625,1997,1434,533
5.245359987000484,1964,1391,508
5.248053617000551,1939,1374,509
5.250746539000829,1931,1323,476
5.253439545000219,2019,1397,539
5.256131174999609,2085,1433,544
5.258824554999592,2058,1453,554
5.26151593600116,2004,1472,565
5.2642201489998115,1968,1391,503
5.266938030001256,1943,1380,509
5.269651368000268,1936,1344,489
5.272348039999997,1941,1348,503
5.275039754000318,2064,1418,545
5.277733758999602,2063,1428,543
5.2804300139996485,2015,1463,571
5.283121436001238,1982,1408,525
5.28581769199991,1953,1378,505
5.288512155000717,1938,1360,499
5.291204077000657,1934,1312,468
5.293900124001084,2034,1403,538
5.29659583800094,2086,1433,545
5.299290427001324,2054,1457,561
5.301985764999699,2003,1460,553
5.304681270001311,1967,1391,503
5.307374526000785,1945,1381,510
5.310093906000475,1936,1337,486
5.31279095300124,1968,1372,523
5.3155090830005065,2064,1424,548
5.3182032969998545,2047,1436,545
5.32089901099971,2007,1471,571
5.323593058001279,1971,1397,506
5.326284605000183,1951,1378,510
5.328979568001159,1937,1351,495
5.331674282000677,1929,1319,482
5.33436582899958,2033,1410,546
5.337061292000726,2058,1424,539
5.339756506000413,2018,1451,560
5.342449220001072,1983,1427,537
5.3451458500003355,1956,1378,501
5.347838188999958,1939,1367,509
5.3505300270007865,1931,1325,478
5.353222032999838,1999,1385,528
5.355912913000793,2069,1424,547
5.358603460001177,2044,1442,553
5.361294424001244,2002,1475,576
5.363988220000465,1971,1390,507
5.36667855900123,1946,1381,509
5.3693723140004295,1935,1344,491
5.372066736001216,1934,1331,494
5.374759325000923,2055,1414,546
5.377456121999785,2064,1424,541
5.3801501270008885,2018,1456,563
5.3828431740003,1982,1419,528
5.385537846001171,1954,1380,504
5.388231602000815,1941,1365,501
5.390925607000099,1933,1320,475
5.3936207790011395,2018,1399,543
5.396317783999621,2075,1424,538
5.399008873000639,2047,1453,550
5.403535548000946,2000,1469,566
5.40623517899985,1950,1376,511
5.408933101000002,1936,1354,496
5.411628773001212,1934,1317,481
5.414320070000031,2039,1413,550
5.4170193250010925,2067,1424,539
5.419714955000018,2032,1456,560
5.4224539610004285,1987,1437,541
5.425160966000476,1965,1382,501
5.427856887999951,1937,1371,503
5.430548850999912,1934,1327,479
5.433243397999831,1991,1386,533
5.435937444999581,2075,1427,548
5.43863036699986,2059,1443,553
5.441323789000307,2009,1478,576
5.444019503000163,1973,1392,503
5.446715924999808,1947,1381,511
5.449411638999663,1936,1349,496
5.452104060999773,1936,1331,494
5.454795649000516,2064,1418,549
5.457486613000583,2067,1427,543
5.46017699299955,2025,1462,567
5.46286791500097,1984,1422,530
5.465558461999535,1955,1379,507
5.468252426000618,1940,1371,505
5.470943764001277,1935,1318,473
5.473634936000963,2022,1399,539
5.476330108000184,2080,1430,545
5.479027196999596,2055,1451,555
5.4817247850005515,2003,1472,562
5.4844199159997515,1968,1391,505
5.487112171000263,1950,1379,509
5.489809218001028,1934,1344,491
5.492503847999615,1941,1351,510
5.495197395001014,2064,1423,547
5.497890942000595,2063,1425,539
5.500584114000958,2017,1463,567
5.503274953000073,1983,1408,526
5.505969625000944,1952,1379,507
5.508663255001011,1936,1360,505
5.511353844000041,1933,1312,474
5.5140419319996,2035,1408,544
5.516742146000979,2080,1426,547
5.519465110000965,2045,1455,560
5.5221584900009475,2000,1456,554
5.524848995000866,1968,1386,503
5.527545001001272,1947,1379,511
5.530234630999985,1938,1335,486
5.53292955300094,1952,1366,525
5.535623224999654,2016,1408,544
5.538314229999742,2002,1417,543
5.541014444001121,1978,1451,563
5.543711157000871,1954,1385,508
5.546401871000853,1936,1361,507
5.549096042999736,1927,1341,495
5.5517885480003315,1927,1311,481
5.554477845000292,2035,1408,547
5.557171517000825,2058,1422,542
5.559861189000003,2027,1446,560
5.562553069999922,1986,1428,538
5.565242741000475,1946,1365,496
5.5679373720013245,1942,1367,511
5.570627959999911,1935,1326,480
5.573322924001332,1986,1379,529
5.57602059599958,2057,1419,542
5.578711309999562,2032,1434,547
5.581406482000602,1998,1469,576
5.584102487000564,1967,1381,502
5.586795451001308,1951,1375,511
5.589487663999535,1931,1344,494
5.592181669000638,1933,1329,495
5.5948735080000915,2030,1407,547
5.597567930000878,2033,1411,537
5.600261184999908,2007,1447,560
5.602951524000673,1974,1411,528
5.605649570999958,1950,1373,501
5.608343951000279,1937,1360,501
5.611037914999542,1935,1314,469
5.613729669999884,2003,1391,538
5.6164266760006285,2058,1421,546
5.619118889000674,2029,1435,551
5.621814477999578,1991,1458,559
5.624543482999798,1965,1381,499
5.627246238000225,1942,1374,507
5.629939619000652,1936,1334,485
5.632636456999535,1940,1347,502
5.63532842099994,2029,1408,545
5.638022135000938,2030,1417,534
5.640715682000518,1997,1451,562
5.643408437001199,1968,1395,511
5.646129359000042,1950,1365,503
5.6488248229998135,1936,1353,497
5.651523745000304,1934,1307,467
5.654215542001111,2022,1403,544
5.656906213000184,2047,1415,541
5.659598135000124,2019,1439,555
5.662288682000508,1985,1438,547
5.664979229000892,1963,1377,501
5.667672776000472,1939,1369,507
5.670365572999799,1936,1329,479
5.6730597040004795,1959,1363,511
5.675754001000314,2034,1412,544
5.6784460060007405,2031,1423,544
5.681142428000385,1997,1459,564
5.683833266000875,1967,1392,508
5.686526772000434,1945,1371,507
5.689220360000036,1935,1347,496
5.69191678199968,1933,1318,483
5.694609121001122,2027,1408,549
5.697304126000745,2038,1418,538
5.699995922999733,2014,1446,555
5.702686179000011,1983,1423,530
5.705379809000078,1953,1375,500
5.708071439001287,1938,1361,502
5.710765486001037,1934,1322,473
5.713463033000153,1993,1378,527
5.716158704999543,2059,1424,543
5.718848919001175,2037,1435,547
5.721542507000777,2000,1472,571
5.724234138000611,1967,1390,506
5.726926060000551,1946,1377,508
5.729619732001083,1936,1345,490
5.73231357000077,1932,1331,495
5.735004658999969,2034,1411,542
5.737700039000629,2043,1421,542
5.740392794001309,2015,1455,561
5.743085924999832,1978,1411,528
5.745780055000068,1955,1375,506
5.748476394001045,1937,1361,505
5.751167316000647,1931,1315,471
5.753857529000015,2002,1392,535
5.756549576000907,2053,1421,543
5.759240957000657,2015,1426,544
5.7619310450008925,1994,1459,561
5.764622925000367,1959,1380,502
5.7673130559996935,1939,1373,510
5.770008269000755,1931,1337,483
5.772699357999954,1941,1348,506
5.775391655000931,2064,1417,549
5.778117744001065,2061,1424,544
5.7808115820007515,2014,1461,564
5.783527838000737,1978,1408,525
5.7862193010005285,1950,1376,509
5.788914640001167,1938,1358,501
5.7916088120000495,1934,1306,470
5.794298816999799,2011,1404,545
5.79699319700012,2042,1417,539
5.799686078000377,2015,1441,554
5.802374374999999,1984,1442,544
5.805067797000447,1954,1374,497
5.807764176999626,1938,1370,503
5.81045684899982,1933,1328,481
5.813152688000628,1968,1365,511
5.816667236000285,2075,1423,544
5.819367783000416,2064,1437,551
5.822067830000378,2000,1459,565
5.824798585999815,1968,1385,503
5.827522383000542,1943,1375,511
5.8302149290011585,1931,1338,487
5.832911351000803,1953,1357,510
5.83560310699977,2064,1422,549
5.838292194999667,2059,1431,544
5.840985326000009,2015,1466,574
5.843682623000859,1980,1408,524
5.846375836001243,1953,1379,508
5.849071425000147,1938,1358,498
5.851764389000891,1930,1309,476
5.854455394000979,2038,1412,553
5.8571443159999035,2078,1427,547
5.859833571001218,2046,1456,560
5.862524451000354,1997,1450,553
5.865215582000019,1965,1388,507
5.867906462000974,1942,1377,511
5.870601134000026,1932,1333,484
5.873294556000474,1977,1378,528
5.875990853000985,2069,1427,549
5.878675775000374,2055,1439,547
5.881372113000907,2015,1476,571
5.884069952000573,1972,1398,503
5.886762916001317,1950,1381,509
5.889458671001194,1936,1354,494
5.892151926000224,1931,1326,485
5.89484368200101,2064,1419,548
5.8975387290010985,2080,1431,544
5.9002303590004885,2038,1463,563
5.902923781000936,1995,1434,541
5.905618078000771,1958,1385,506
5.9083125830002245,1939,1365,502
5.911004130000947,1932,1328,477
5.913697469000908,2005,1392,535
5.9163923489995796,2096,1437,549
5.919084021001254,2074,1453,555
5.921778443000221,2017,1485,575
5.924471698001071,1973,1394,506
5.9271623700005875,1949,1386,511
5.929855459000464,1935,1348,493
5.932550256000468,1933,1338,496
5.935241385999689,2027,1403,538
5.937935891000961,2045,1423,544
5.940631522000331,2014,1455,564
5.943325444000948,1973,1410,525
5.946019824001269,1954,1373,502
5.948714371001188,1939,1361,502
5.951406751000832,1935,1313,476
5.954131382000924,2015,1394,541
5.956828554000822,2069,1424,543
5.959519850999641,2039,1447,554
5.962211772999581,1999,1458,559
5.964902777999669,1966,1383,499
5.967594949999693,1942,1376,510
5.9702863300008175,1936,1339,489
5.972977919000186,1947,1355,509
5.975669090999872,2047,1418,544
5.978362887999538,2041,1423,541
5.981057643000895,2006,1458,565
5.9837519400007295,1969,1401,511
5.986446279001029,1949,1373,507
5.989143533999595,1937,1355,498
5.991837956000381,1935,1308,469
5.9945288359995175,2016,1405,543
5.997225425000579,2047,1418,541
5.999920930000371,2023,1443,555
6.002613894001115,1984,1438,549
6.005306441000357,1957,1378,503
6.008000695999726,1943,1370,505
6.010690868000893,1933,1325,475
6.013435914999718,1981,1374,527
6.0161682950001705,2103,1430,547
6.018863092000174,2089,1451,553
6.021559389000686,2030,1487,581
6.024252561001049,1986,1405,511
6.026966483001161,1955,1387,511
6.029674280000108,1936,1358,496
6.032368202000725,1932,1330,491
6.035059916001046,2046,1418,547
6.03775550499995,2067,1429,539
6.040453051000441,2032,1459,561
6.043145432000529,1984,1427,532
6.045840894999856,1959,1382,508
6.048535941999944,1939,1369,508
6.051228530999651,1931,1323,475
6.053944203000356,2007,1392,533
6.056663999999728,2079,1431,548
6.059360964000007,2059,1450,551
6.062066594000498,2006,1472,566
6.064759808001327,1971,1391,506
6.067484646000594,1946,1381,511
6.070178735000809,1934,1345,489
6.072873532000813,1939,1347,501
6.075567496000076,2043,1413,543
6.0782604180003545,2037,1424,538
6.0809531310005696,2006,1456,563
6.083650386000954,1974,1404,526
6.086344892000852,1950,1375,506
6.089039689000856,1935,1360,498
6.091734902000098,1934,1311,466
6.094428283000525,2032,1408,545
6.097122455001227,2069,1424,542
6.099817542999517,2036,1453,559
6.102510549000726,1996,1455,553
6.105206887001259,1962,1383,503
6.107900851000522,1943,1376,509
6.110592773000462,1935,1334,483
6.113288945000022,1970,1361,510
6.115985533000639,2093,1431,551
6.11867966400132,2083,1447,547
6.121375127000647,2031,1482,576
6.124071008000101,1985,1409,511
6.12676313799966,1953,1386,511
6.129458560000785,1936,1360,499
6.132154315000662,1927,1323,484
6.134845029000644,2042,1415,554
6.137548701000924,2071,1425,545
6.140243372999976,2014,1446,555
6.142934086001333,1991,1436,540
6.145629925000321,1963,1382,505
6.148328139001023,1938,1373,507
6.1510213109995675,1932,1328,473
6.1537181490002695,2001,1385,528
6.156412405000083,2093,1429,545
6.159104993001165,2069,1447,553
6.161797540000407,2018,1483,577
6.164489962000516,1974,1398,509
6.167180884000118,1947,1383,510
6.169877098000143,1936,1350,496
6.172573936000845,1932,1332,493
6.1752656080007,2070,1423,550
6.1779615720006404,2082,1435,546
6.1806564110011095,2039,1470,570
6.183347291000246,1990,1427,533
6.186041921000651,1961,1385,510
6.188737135000338,1938,1372,507
6.191456057000323,1932,1322,477
6.1941507709998405,2021,1398,542
6.196846525999717,2092,1435,550
6.199542365000525,2064,1456,560
6.202233703001184,2014,1475,566
6.204928417000701,1968,1392,507
6.207623839000007,1949,1385,511
6.210316052000053,1936,1345,491
6.21301239100103,1943,1351,503
6.215706855000462,2064,1415,544
6.218397652000931,2064,1433,549
6.221094157001062,2021,1468,571
6.223789871000918,1983,1412,527
6.226480334000371,1955,1381,508
6.2292032559998916,1938,1361,499
6.231909137000912,1936,1315,473
6.234602475000429,2025,1408,546
6.237297564000983,2060,1422,542
6.239990944000965,2026,1447,558
6.242684365999594,1992,1447,549
6.245380829999704,1967,1383,505
6.248075376999623,1947,1371,510
6.250766340001064,1936,1331,485
6.253462386999672,1963,1365,523
6.256154726001114,2023,1409,546
6.258847106000758,2021,1421,544
6.261538445000042,1985,1456,570
6.264230824999686,1962,1388,506
6.266923164001128,1942,1367,503
6.269616169000074,1935,1344,496
6.272312133000014,1930,1313,485
6.275003221000588,2066,1415,546
6.277698935000444,2095,1434,545
6.280393482000363,2047,1463,563
6.283084779001001,2001,1438,545
6.285779076000836,1967,1389,510
6.288473831000374,1945,1376,511
6.291166211000018,1934,1329,479
6.293857467000635,1985,1383,528
6.296550639000998,2041,1417,543
6.299240811000345,2031,1435,549
6.3019343160012795,1994,1467,574
6.304627446001177,1963,1385,503
6.307319659999848,1946,1375,509
6.31001624900091,1937,1345,491
6.31270971199956,1933,1328,493
6.315403509001044,2039,1411,544
6.318129430999761,2054,1411,529
6.320826728000611,2015,1456,562
6.323518192000847,1983,1418,528
6.326207989000977,1952,1376,504
6.328902744000516,1941,1361,503
6.331593958000667,1935,1317,473
6.33428471300067,2005,1394,538
6.336975718000758,2058,1424,542
6.339671015000931,2032,1440,555
6.342363478999687,1997,1460,559
6.345057067999733,1966,1381,501
6.347749489001217,1941,1374,511
6.350439327999993,1936,1339,486
6.353133750000779,1939,1347,505
6.355824214000677,2032,1411,540
6.35851526100123,2032,1420,539
6.361207099000239,2000,1455,566
6.363899687999947,1970,1399,521
6.366590609999548,1951,1370,500
6.369280365001032,1936,1356,496
6.3719775789995765,1935,1308,469
6.3746695009995165,2025,1403,545
6.377362463999816,2055,1422,542
6.380054885999925,2026,1445,555
6.382744182999886,1987,1446,551
6.38543714700063,1959,1379,501
6.388130277000528,1943,1373,509
6.390820116001123,1936,1332,480
6.393514330000471,1966,1363,511
6.396207667999988,2042,1414,545
6.398897422999653,2032,1424,545
6.401591137000651,2000,1459,571
6.404288309000549,1968,1392,508
6.406981731000997,1949,1374,505
6.409675861001233,1937,1350,496
6.412370033000116,1935,1315,482
6.415059122000457,2026,1403,547
6.417759752001075,2042,1417,541
6.420454424000127,2011,1436,554
6.4231447630008915,1977,1425,540
6.42583768500117,1953,1373,501
6.428532940000878,1937,1365,507
6.431257653999637,1934,1326,477
6.433961992001059,1990,1381,531
6.436657373000344,2064,1422,546
6.439349628000855,2038,1435,547
6.442043383000055,2000,1472,575
6.444738389000122,1968,1387,505
6.447457268999642,1944,1377,508
6.450149690999751,1935,1344,496
6.452844613000707,1931,1330,496
6.45554386799995,2054,1411,545
6.458239081999636,2061,1424,542
6.46092962900002,2018,1456,563
6.463619717000256,1981,1414,528
6.466312763999667,1955,1377,506
6.469004770000538,1937,1365,499
6.4716964830004144,1935,1318,477
6.4743821550000575,2022,1400,541
6.477077536001161,2087,1428,545
6.479778916000214,2057,1453,557
6.4824724629997945,2006,1472,565
6.485168467999756,1968,1391,503
6.487866307001241,1945,1379,511
6.490559645000758,1936,1343,489
6.493253276001269,1940,1353,510
6.495947448000152,2039,1415,545
6.498640535999584,2043,1424,543
6.50133758300035,2007,1460,568
6.5040342140000575,1973,1405,511
6.506724552000378,1950,1374,507
6.50942064100127,1936,1358,500
6.512115896000978,1930,1308,473
6.514807192999797,2013,1403,547
6.51750065700071,2047,1419,541
6.520194619999529,2022,1443,560
6.522885667000082,1984,1434,544
6.525581298001271,1955,1378,505
6.528273220001211,1939,1369,511
6.530965558000389,1934,1329,480
6.53366122999978,1962,1363,511
6.536356861000968,2030,1410,543
6.539046116000463,2021,1422,541
6.541747455001314,1994,1456,567
6.544444376000683,1963,1390,506
6.547135922999587,1942,1370,507
6.549830179001219,1935,1346,496
6.552522767000482,1933,1315,483
6.5552148560000205,2027,1407,548
6.557909528000891,2047,1419,542
6.5606004080000275,2015,1446,560
6.563290121999671,1983,1424,534
6.565982002000965,1957,1377,502
6.568673507001222,1939,1367,509
6.5713641380007175,1933,1325,480
6.574064100999749,1984,1378,528
6.576755772999604,2047,1419,543
6.579474612000922,2033,1431,550
6.582167492000735,1995,1468,574
6.584863456000676,1966,1383,500
6.587555711001187,1947,1375,509
6.590246300000217,1935,1344,492
6.592938722000326,1935,1330,496
6.595633977000034,2014,1404,546
6.598326733001159,2025,1410,535
6.601020113001141,1999,1445,560
6.603715826000553,1967,1405,528
6.60640758199952,1949,1367,501
6.609102587000962,1937,1357,498
6.611797008999929,1935,1312,470
6.614487972999996,1991,1386,534
6.61718118600038,2031,1410,543
6.6198747329999605,2014,1426,547
6.622566697000366,1981,1450,559
6.62526070199965,1957,1363,494
6.627954207000585,1940,1367,503
6.630645504001222,1934,1333,485
6.63337171800049,1946,1346,506
6.636077265000495,2058,1414,545
6.638769354000033,2047,1424,542
6.641463526000734,2011,1459,566
6.644157239001288,1971,1407,523
6.64684795300127,1951,1375,508
6.649540583000999,1938,1359,505
6.652236755000558,1931,1309,474
6.654927427000075,2003,1401,545
6.6576224740001635,2030,1412,536
6.660314812999786,2003,1437,554
6.663006443000995,1974,1432,542
6.665698239999983,1953,1370,499
6.668387953999627,1937,1365,505
6.671079501000349,1936,1325,481
6.673770006000268,1968,1362,523
6.676460761000271,2058,1415,544
6.679153392000444,2036,1426,545
6.681846105000659,2004,1463,570
6.6845399440007895,1970,1394,511
6.6872318660007295,1935,1366,499
6.689924913000141,1936,1351,496
6.692619960000229,1933,1318,486
6.695312132000254,2035,1409,548
6.6980070950012305,2061,1424,535
6.700700475999838,2023,1453,560
6.703390648001005,1987,1427,533
6.706112986001244,1961,1378,506
6.708806824999556,1943,1370,506
6.711522330000662,1934,1325,479
6.714214752000771,1986,1383,530
6.716908882001007,2047,1419,545
6.7196025129997,2032,1430,549
6.722295310000845,1997,1468,574
6.724992232000659,1964,1383,499
6.727686070000345,1942,1366,501
6.730376576000708,1936,1343,493
6.733069706000606,1935,1328,495
6.7357662949998485,2047,1413,547
6.738456633000169,2062,1424,541
6.7411493890012935,2013,1459,563
6.743841769000937,1984,1413,527
6.746534773999883,1955,1377,503
6.749229404000289,1938,1364,502
6.751922659999764,1933,1315,469
6.754617373000656,1990,1392,535
6.757311920000575,2025,1411,537
6.760004592000769,2011,1429,543
6.762695723000434,1983,1451,557
6.765386270000818,1959,1373,498
6.768080150000969,1940,1364,506
6.770772154999577,1936,1335,482
6.773464369000067,1942,1346,506
6.776158999000472,2063,1418,542
6.778848920999735,2063,1426,545
6.781541010001092,2018,1463,567
6.784234598000694,1968,1397,509
6.786928604000423,1956,1377,503
6.789624775999982,1938,1360,496
6.792319448000853,1935,1311,468
6.7950106610005605,2017,1406,540
6.797704624999824,2043,1418,541
6.800397797000187,2018,1441,556
6.803088677001142,1985,1440,545
6.805782432000342,1959,1378,500
6.808475146001001,1937,1372,508
6.811164401000497,1933,1328,481
6.8138555320001615,1962,1360,511
6.816549912000482,2034,1411,538
6.819242876001226,2029,1422,539
6.821937172000617,1994,1457,566
6.824629468999774,1968,1390,506
6.82731851599965,1946,1367,503
6.830012772001282,1934,1340,486
6.832706277000398,1934,1317,481
6.835457115999816,2028,1407,546
6.8381606210004975,2045,1419,538
6.840855376000036,2015,1447,559
6.843550048000907,1978,1423,537
6.84623892899981,1953,1375,502
6.848932726001294,1940,1365,505
6.8516286890007905,1936,1323,481
6.854322236000371,1982,1379,528
6.857015408000734,2038,1412,539
6.859709329999532,2023,1428,549
6.8623985440008255,1990,1463,574
6.865088882001146,1961,1377,502
6.867780096001297,1943,1372,509
6.870469935000074,1935,1341,493
6.873160232000373,1931,1330,495
6.8758536120003555,2032,1408,548
6.87854495099964,2039,1414,542
6.88123874700068,2007,1452,560
6.883935669000493,1977,1408,528
6.886629216000074,1949,1370,502
6.889323888000945,1936,1359,501
6.892017852000208,1931,1312,470
6.894709481999598,2003,1391,538
6.897403113000109,2053,1417,539
6.900097450999965,2028,1435,547
6.902787707000243,1993,1456,560
6.905482754000332,1966,1379,500
6.908174133999637,1942,1373,506
6.910864638999556,1935,1335,486
6.913566893999814,1943,1348,502
6.916262316000939,2056,1417,542
6.91895373800071,2059,1427,541
6.921648494000692,2019,1463,563
6.924337456999638,1981,1408,524
6.927026504001333,1957,1380,505
6.9297215930000675,1942,1360,501
6.932415015000515,1933,1306,464
6.935105186999863,2025,1410,547
6.937798400000247,2054,1424,543
6.940506697001183,2029,1447,559
6.9432014110007,1989,1445,548
6.945895708000535,1958,1378,502
6.948594004999904,1936,1370,503
6.951290052000331,1923,1327,480
6.953986557000462,1943,1358,511
6.956680229000995,1995,1395,539
6.959372485000131,1995,1407,534
6.9620914480001375,1974,1438,561
6.964783620000162,1952,1375,499
6.967503834001036,1941,1360,502
6.9701944640000875,1934,1340,494
6.972885428000154,1930,1311,480
6.975575391001257,2029,1401,542
6.978265937999822,2043,1414,538
6.980955527000333,2014,1445,559
6.98365024099985,1982,1424,536
6.986342870999579,1955,1376,501
6.989036876000682,1938,1365,498
6.9917312979996495,1934,1323,476
6.994422387000668,1985,1377,528
6.99711414200101,2041,1415,542
6.999806355999681,2027,1429,541
7.002495986000213,1993,1467,570
7.005189658000745,1959,1381,497
7.007883412999945,1942,1369,502
7.010574919000646,1935,1340,487
7.0132725490002485,1932,1330,495
7.016016846000639,2065,1415,548
7.018743226000879,2078,1430,540
7.02143785699991,2032,1463,567
7.024134195000443,1984,1421,528
7.026826326000446,1958,1384,510
7.0295186639996246,1938,1366,502
7.032213128000876,1931,1318,475
7.03490446700016,2005,1392,535
7.037625097000273,2061,1424,545
7.040327894001166,2032,1445,560
7.0430216069999005,1997,1455,556
7.045717779001279,1962,1381,502
7.048412326001198,1943,1375,506
7.051102498000546,1936,1334,484
7.053795420000824,1959,1359,511
7.0564899670007435,2094,1428,555
7.059180555999774,2086,1443,553
7.061907270001029,2032,1481,576
7.064630107999619,1987,1419,528
7.067321947000892,1954,1387,511
7.070014119000916,1939,1361,498
7.07270679100111,1930,1316,480
7.075401755000712,2058,1418,549
7.078129884999726,2089,1431,546
7.080824640001083,2046,1460,564
7.083518604000346,2000,1450,545
7.086210442001175,1967,1391,506
7.088904989001094,1943,1378,511
7.0916014530012035,1935,1331,482
7.09429233300034,1984,1381,530
7.096985505000703,2089,1429,549
7.099680261000685,2073,1447,553
7.10237084900109,2022,1484,576
7.105061980000755,1978,1396,509
7.107756485000209,1954,1387,511
7.110449322999557,1936,1357,496
7.113142911999603,1921,1328,495
7.115835667000283,2039,1413,549
7.118526464000752,2060,1423,545
7.121219595001094,2023,1456,561
7.123912766999638,1985,1425,535
7.126604647000931,1958,1382,504
7.1293022360005125,1939,1370,507
7.131999741000982,1930,1323,470
7.13469183000052,2006,1391,533
7.1373860010007775,2074,1420,537
7.140083090000189,2047,1445,553
7.142775304000679,2004,1472,567
7.145468601000175,1971,1391,502
7.148162188999777,1943,1381,509
7.150853195000309,1936,1344,492
7.1535522419999324,1935,1344,501
7.15625103900129,2073,1419,550
7.158943460999581,2074,1431,544
7.161638716001107,2030,1466,567
7.1643400129996735,1984,1418,528
7.167033518000608,1953,1382,506
7.169726190000802,1939,1363,501
7.172421029001271,1934,1316,471
7.175114367000788,2030,1407,546
7.1778064139998605,2087,1431,544
7.1805029200004356,2055,1456,559
7.183195675001116,2002,1461,560
7.185890889000802,1970,1392,507
7.1885856019998755,1941,1381,511
7.191277858000831,1936,1339,487
7.1939741959995445,1945,1359,511
7.19666941000105,2041,1413,547
7.199360290000186,2035,1424,544
7.202066170000762,2005,1459,569
7.2047647170002165,1969,1399,511
7.207487097999547,1951,1379,506
7.210182353001073,1933,1357,497
7.212879067001268,1933,1316,479
7.2155744890005735,2047,1412,550
7.218267911001021,2079,1428,545
7.2209632490012154,2042,1456,562
7.223659213001156,1999,1442,546
7.226354051999806,1966,1389,506
7.229047431999788,1941,1378,504
7.2317441449995385,1935,1329,480
7.234437983999669,1997,1386,529
7.237137406000329,2087,1429,549
7.239867745000083,2066,1440,546
7.242565583001124,2019,1486,576
7.245259630000874,1977,1402,508
7.2479568859998835,1952,1389,511
7.250647349001156,1935,1354,496
7.2533427300004405,1933,1333,496
7.256037942999683,2032,1413,547
7.258729990000575,2047,1422,543
7.2614246619996266,2016,1454,564
7.264118376000624,1981,1419,531
7.266809505999845,1954,1379,506
7.269503094999891,1938,1364,506
7.272199892000572,1931,1320,471
7.27491439699952,2014,1392,535
7.277624152000499,2079,1428,546
7.280320116000439,2047,1447,554
7.283014829999956,2001,1469,560
7.285709752000912,1968,1391,502
7.288401715000873,1943,1380,511
7.2910935540003265,1936,1342,490
7.293784268000309,1941,1351,506
7.296479231001285,2078,1424,548
7.299170694999702,2071,1435,545
7.301867158001187,2027,1470,567
7.304563580000831,1984,1414,527
7.307255585999883,1954,1385,507
7.309949174001304,1936,1363,499
7.312641554999573,1931,1312,468
7.315335434999724,2031,1408,544
7.318028690000574,2074,1426,542
7.320722862001276,2038,1451,558
7.323415742999714,1999,1455,555
7.326133165001011,1963,1387,507
7.328829002999555,1939,1378,508
7.33152309199977,1931,1333,483
7.33421393000026,1968,1373,525
7.33690856100111,2083,1427,546
7.339604107999548,2077,1442,545
7.342296779999742,2023,1472,570
7.344993785000042,1981,1408,510
7.34769066500121,1953,1389,510
7.350383421000515,1938,1360,501
7.353079259000879,1935,1324,485
7.35577259800084,2043,1415,549
7.358463685999595,2073,1427,547
7.361156775001291,2031,1456,565
7.363851947000512,1995,1437,543
7.366544827000325,1962,1386,509
7.369236749000265,1938,1375,511
7.3719287130006705,1934,1328,481
7.374620718001097,1996,1386,530
7.377312182001333,2091,1429,549
7.3800071040004696,2074,1451,553
7.38270065100005,2023,1486,581
7.385391613999673,1980,1395,510
7.388087203000396,1954,1386,511
7.390779542000018,1936,1351,495
7.393474714001059,1934,1333,497
7.396167802000491,2036,1413,547
7.3988587240000925,2047,1421,543
7.401554730000498,2016,1455,570
7.404248068000015,1979,1417,529
7.40693869900133,1954,1376,505
7.409633328999917,1938,1361,506
7.41233187600119,1935,1317,475
7.415024464000453,2006,1392,543
7.417721011001049,2066,1423,547
7.420415933000186,2043,1443,556
7.423107689000972,2000,1462,561
7.425803652000468,1965,1387,502
7.428498074001254,1946,1379,511
7.431188870999904,1933,1344,487
7.433881502000077,1939,1345,503
7.436572882001201,2044,1410,546
7.4392661370002315,2043,1424,539
7.441962142000193,2011,1459,567
7.444666814000811,1973,1398,511
7.4473616530012805,1950,1377,509
7.45006824200027,1939,1360,501
7.452763496999978,1934,1312,471
7.45548675200007,2019,1404,546
7.458182799000497,2053,1422,540
7.460876555000141,2032,1446,559
7.463570351999806,1994,1445,549
7.466263899001206,1963,1381,501
7.468955862001167,1942,1375,511
7.471645908999562,1933,1331,486
7.474338873000306,1966,1367,511
7.477031336000437,2075,1424,545
7.47974242500095,2065,1436,550
7.482437222000954,2019,1473,573
7.485133686001063,1975,1401,511
7.487829732999671,1953,1382,511
7.490522113001134,1937,1357,496
7.493216368000503,1933,1324,486
7.49591029000112,2063,1418,551
7.4986030039999605,2087,1430,547
7.501295801001106,2047,1461,567
7.503991764000602,2000,1441,539
7.506686061000437,1959,1388,510
7.509383067001181,1943,1378,510
7.51207569700091,1934,1326,480
7.514764577001188,1983,1381,528
7.517458333000832,2043,1423,543
7.520151630000328,2026,1431,550
7.522841801999675,1995,1467,576
7.525533514999552,1965,1382,509
7.528226521000761,1933,1362,497
7.530916691999664,1936,1343,493
7.533610406000662,1933,1329,496
7.536303703000158,2060,1412,546
7.538994333001028,2063,1424,535
7.541697672000737,2022,1458,563
7.544392093999704,1981,1420,528
7.547082058001251,1952,1372,498
7.549775646000853,1941,1370,506
7.552468485000645,1931,1319,476
7.5551584900003945,2000,1392,539
7.557852787000229,2058,1417,541
7.560547291999683,2031,1439,551
7.5632357980011875,1993,1458,560
7.565927928000747,1964,1383,501
7.568618057999629,1946,1374,511
7.571308354999928,1936,1341,488
7.573996819000968,1936,1346,503
7.57668907399966,2026,1407,543
7.579378496000572,2028,1414,537
7.582100585001172,1997,1446,561
7.584796422999716,1968,1397,511
7.587514012000611,1949,1367,507
7.590205767000953,1936,1355,497
7.592900355999518,1935,1305,468
7.595596903000114,2018,1402,542
7.598286783000731,2058,1420,538
7.600977289001094,2026,1445,559
7.603674211000907,1991,1445,549
7.606368299000678,1961,1382,505
7.609060138000132,1941,1367,511
7.611754810001003,1936,1329,482
7.614447898000435,1968,1367,526
7.617140987000312,2077,1424,545
7.619832992000738,2071,1438,547
7.622524373000488,2027,1476,573
7.625218253000639,1983,1407,511
7.627911550000135,1957,1386,509
7.6306013049998,1938,1360,499
7.633294727000248,1935,1326,486
7.635990398999638,2032,1410,541
7.638681821001228,2047,1421,543
7.641408909999882,2013,1449,559
7.644114665001325,1977,1424,538
7.646805087000757,1946,1372,503
7.6494991760009725,1927,1357,496
7.652194889000384,1922,1318,479
7.654885353000282,1986,1376,528
7.657579275000899,2064,1419,539
7.6602701970005,2039,1435,549
7.662960869000017,2002,1472,573
7.6656564160002745,1970,1389,503
7.66834808800013,1946,1377,511
7.671037551999689,1935,1344,495
7.673728306999692,1932,1333,496
7.676419145000182,2071,1416,550
7.679109984001116,2078,1429,544
7.6818001980009285,2034,1467,564
7.684493120001207,1991,1426,529
7.687183250000089,1959,1387,508
7.690714132000721,1940,1369,507
7.6934233869997115,1933,1322,479
7.696118183999715,2035,1411,553
7.698812356000417,2063,1424,541
7.701509820000865,2031,1455,566
7.70420574200034,1984,1426,543
7.706900289000259,1955,1380,509
7.709595543999967,1941,1369,511
7.712290716001007,1932,1325,481
7.714980763001222,1999,1386,528
7.717674060000718,2071,1424,544
7.720368857000722,2047,1443,551
7.7230598620008095,2003,1472,571
7.725752784001088,1971,1389,501
7.728445288999865,1945,1378,510
7.731138627999826,1930,1344,494
7.73383342499983,1932,1337,500
7.736526430000595,2038,1411,546
7.73921810200045,2052,1424,540
7.741910607999671,2014,1456,565
7.744603196000753,1979,1413,530
7.747292493000714,1956,1377,509
7.749985124000887,1937,1362,502
7.752676087000509,1935,1315,475
7.755365050999899,2000,1396,541
7.7580680980008765,2047,1411,543
7.760762728001282,2027,1438,553
7.763486400001057,1989,1454,560
7.766181614000743,1958,1379,501
7.768873951999922,1943,1373,506
7.771564541000771,1933,1334,485
7.774253921001218,1943,1351,510
7.776943468001264,2031,1408,544
7.779632099000082,2029,1418,540
7.782322353999916,1995,1454,563
7.785016234000068,1967,1395,511
7.787719198000559,1946,1370,505
7.790408453000055,1936,1351,498
7.793100332999529,1929,1302,474
7.795797796999977,2035,1407,551
7.798489136001081,2077,1424,548
7.8011815160007245,2039,1456,561
7.80387560500094,2000,1449,553
7.806565818000308,1965,1386,505
7.809260115000143,1941,1376,511
7.811951412000781,1934,1332,484
7.81464087600034,1966,1370,528
7.817334089000724,2051,1417,546
7.820033386000432,2035,1427,548
7.82273751700086,2002,1467,576
7.82543423000061,1971,1392,509
7.8281279020011425,1944,1375,510
7.830818241000088,1937,1351,495
7.833512496001276,1933,1324,486
7.836205751000307,2054,1416,551
7.838895257000331,2078,1426,545
7.841629054000805,2039,1459,563
7.844338808999964,1994,1433,541
7.847030356000687,1961,1385,510
7.849725611000395,1938,1373,510
7.852418992000821,1935,1327,478
7.855112372000804,2011,1391,533
7.8578087109999615,2091,1431,547
7.860504633001256,2064,1454,557
7.863194513000053,2015,1485,573
7.865887935000501,1974,1392,508
7.868578149000314,1949,1383,511
7.871275862000402,1936,1349,495
7.87397007599975,1935,1343,505
7.876661080999838,2065,1422,551
7.879351503001089,2067,1430,544
7.882045217000268,2026,1463,567
7.884747430000061,1984,1417,528
7.887479686000006,1959,1383,510
7.890173358000538,1931,1367,503
7.892867112999738,1932,1314,474
7.89556099299989,1980,1392,542
7.8982514569997875,2014,1407,539
7.900946503999876,2000,1424,553
7.903641676000916,1973,1438,554
7.906330723000792,1951,1370,499
7.909022436000669,1938,1365,505
7.911716692000482,1935,1329,482
7.914408030001141,1955,1355,508
7.917102244000489,2066,1417,547
7.919800083000155,2064,1429,545
7.922492421001152,2019,1469,569
7.925185885000246,1978,1407,523
7.927880724000715,1954,1377,509
7.930571062001036,1936,1358,502
7.933265192001272,1932,1312,475
7.9359588229999645,2019,1406,547
7.9386494950013,2039,1418,543
7.9413432920009654,2019,1443,560
7.944034797001223,1984,1435,546
7.94672680199983,1955,1376,505
7.949417973999516,1941,1367,507
7.952114896001149,1935,1328,483
7.954806359999566,1968,1369,527
7.957498364999992,2032,1409,543
7.9601914120012225,2023,1423,539
7.962881250999999,1995,1456,569
7.965575797999918,1965,1386,508
7.968267803000344,1943,1370,507
7.970960642000136,1936,1345,492
7.973650272000668,1933,1319,489
7.976340860999699,2036,1409,546
7.979030198999681,2061,1421,544
7.981720371000847,2019,1451,563
7.984418251000534,1984,1424,536
7.987110923000728,1954,1377,508
7.989805637000245,1938,1366,505
7.992500517000735,1930,1321,476
7.995192522999787,1983,1378,530
7.997887903000446,2032,1409,543
8.00058078300026,2014,1424,548
8.003272455000115,1985,1459,566
8.005966918999547,1958,1376,503
8.008660216000862,1941,1371,508
8.011344971000653,1934,1339,491
8.014038018000065,1931,1332,496
8.01678893999997,2032,1407,543
8.01952198700019,2038,1419,540
8.022216241999558,2006,1452,565
8.02491149799971,1972,1405,511
8.027609545000814,1953,1372,506
8.0303007170005,1936,1360,501
8.032993930000885,1930,1311,466
8.035687644000063,2005,1395,541
8.038377483000659,2039,1415,538
8.041072195999732,2016,1433,554
8.043795493000289,1983,1441,557
8.046503207000569,1955,1376,501
8.049199962000785,1938,1369,511
8.051894092999646,1936,1329,483
8.054587014999925,1953,1358,511
8.057280478000393,2030,1408,543
8.059974650001095,2023,1418,543
8.062665405001098,2000,1455,571
8.065361036000468,1965,1392,511
8.068054082999879,1945,1364,506
8.07076579600107,1936,1350,496
8.073483010000928,1936,1315,478
8.076177099001143,2005,1399,545
8.078868062000765,2029,1408,538
8.081558734000282,2000,1435,554
8.084249240000645,1975,1423,535
8.08693524500086,1951,1370,498
8.089632958000948,1937,1362,501
8.092333214000973,1935,1325,477
8.095026261000385,1979,1371,528
8.09772351600077,2046,1415,543
8.102015983000456,2032,1427,549
8.104719155000566,1974,1418,539
8.107412909999766,1953,1374,503
8.110147831999711,1939,1365,509
8.112842587001069,1932,1317,471
8.115537801000755,2014,1392,541
8.118228139999701,2065,1424,541
8.120925020000868,2039,1443,558
8.123617442000977,1997,1465,560
8.12630869700115,1967,1386,505
8.129001661000075,1943,1378,507
8.13169412500065,1936,1342,491
8.134386921999976,1939,1348,507
8.137081552000382,2065,1419,544
8.139776723999603,2063,1430,546
8.14247147900096,2019,1466,571
8.145167775999653,1974,1408,525
8.147863240001243,1953,1377,507
8.150555370000802,1939,1360,501
8.153250499999558,1931,1310,470
8.15594525599954,2006,1403,547
8.158636636000665,2032,1415,537
8.16133226599959,2009,1429,548
8.164026063001074,1981,1440,547
8.166717860000063,1953,1377,502
8.169415157000913,1939,1369,506
8.172108204000324,1934,1328,481
8.174799542999608,1957,1362,524
8.177489589999823,2032,1408,543
8.180179887000122,2022,1419,543
8.182871934001014,1993,1455,570
8.185563981000087,1967,1390,507
8.188254861001042,1943,1370,507
8.19095011600075,1936,1349,496
8.19364608000069,1932,1313,482
8.196339502001138,2019,1405,544
8.199030674000824,2033,1413,539
8.201724054000806,2005,1442,558
8.204417101000217,1979,1424,535
8.207112231000792,1954,1369,500
8.209810320000543,1939,1363,505
8.212504367000292,1934,1322,478
8.215196414001184,1978,1373,528
8.217891086000236,2028,1409,541
8.220585258000938,2015,1423,544
8.223274637999566,1983,1459,572
8.22596843500105,1959,1378,499
8.228662732000885,1941,1366,507
8.231352696000613,1932,1340,493
8.234045743000024,1929,1324,491
8.236741290000282,2016,1402,538
8.239466045000881,2027,1408,531
8.242162217000441,1999,1443,560
8.244896764001169,1968,1405,526
8.24760397800128,1951,1370,499
8.25029689999974,1938,1359,499
8.252988780001033,1933,1313,466
8.255683744000635,1995,1389,534
8.258375581999644,2030,1409,539
8.261069879001298,2009,1425,549
8.263764925999567,1980,1442,547
8.266456306000691,1958,1374,496
8.269151103000695,1936,1369,506
8.271848192000107,1935,1332,483
8.274543072000597,1942,1345,505
8.277233328000875,2064,1418,544
8.279926458000773,2066,1429,545
8.28261896299955,2026,1467,569
8.28531392700097,1984,1410,523
8.288007139999536,1957,1381,502
8.290698521001104,1936,1359,497
8.293394317999628,1930,1309,469
8.296088447999864,2003,1402,543
8.298778661999677,2027,1410,538
8.301473499999702,2002,1435,554
8.304168755999854,1977,1435,543
8.306862928000555,1956,1370,497
8.309553266000876,1941,1366,502
8.312247687999843,1933,1327,474
8.314938027000608,1968,1363,511
8.317630949000886,2060,1417,541
8.32032353700015,2043,1427,543
8.323014001000047,2006,1466,573
8.325707340000008,1973,1396,507
8.328399553000054,1951,1378,505
8.331090016999951,1936,1349,495
8.333785647000695,1935,1322,488
8.336481903001186,2014,1406,547
8.339175033001084,2023,1410,535
8.341867705001277,2000,1437,557
8.344559877001302,1968,1417,530
8.347250757000438,1939,1366,498
8.349944053999934,1933,1359,501
8.352637101001164,1924,1315,475
8.35532764799973,1968,1365,525
8.358019403000071,2010,1401,538
8.360712367000815,1999,1413,539
8.363403622000988,1973,1453,566
8.366131253000276,1951,1362,495
8.368825716001083,1942,1365,508
8.371522679999543,1936,1335,491
8.374211977001323,1935,1327,496
8.376902023999719,2058,1410,549
8.379593028999807,2064,1424,540
8.3822849090011,2023,1456,563
8.384975748000215,1986,1417,527
8.387669378000282,1959,1381,510
8.390360425000836,1938,1364,503
8.393052430001262,1933,1314,470
8.39574260200061,2001,1392,537
8.398432358000719,2055,1421,543
8.401126279999517,2029,1437,551
8.403818992999732,1994,1457,560
8.406507874000454,1966,1379,502
8.40920121199997,1945,1376,509
8.411895467999784,1936,1338,490
8.414587806000782,1941,1347,504
8.417284103001293,2036,1411,544
8.419977817000472,2038,1422,539
8.422668572000475,2002,1457,567
8.42536024400033,1973,1403,524
8.4280544989997,1951,1367,508
8.430745796000338,1939,1358,500
8.433440177001103,1934,1308,469
8.436133932000303,2032,1408,550
8.43882572900111,2086,1428,546
8.441518233999886,2047,1456,559
8.444209823001074,2001,1456,549
8.44693491200087,1967,1389,506
8.449637167001129,1946,1381,511
8.452331296999546,1936,1335,486
8.455020719000458,1967,1370,524
8.457712348999848,2041,1418,545
8.460404479999852,2032,1428,546
8.4630938600003,1999,1463,570
8.465787990000536,1968,1392,506
8.468479371000285,1945,1369,500
8.471171209001113,1935,1350,496
8.473860756001159,1930,1319,486
8.476596595000956,2034,1411,549
8.479305849999946,2064,1422,540
8.48200335600086,2026,1454,560
8.484696777000863,1984,1424,538
8.487388323999767,1954,1378,510
8.49011512099969,1937,1365,507
8.492814127001111,1933,1323,475
8.495532965000166,1989,1382,528
8.49822622099964,2064,1421,545
8.50092189300085,2039,1437,549
8.50361939800132,2002,1473,570
8.50631082000109,1970,1389,500
8.50900507500046,1946,1378,509
8.51169920600114,1936,1344,493
8.514390461001312,1936,1340,499
8.517084175000491,2046,1414,544
8.519778555000812,2047,1424,539
8.522469977000583,2015,1458,566
8.52516227399974,1979,1412,528
8.527858196001034,1957,1376,509
8.530551826001101,1939,1361,501
8.533245497999815,1931,1315,469
8.535938420000093,2003,1394,543
8.538629841999864,2032,1415,541
8.541327097000249,2016,1435,554
8.544023603000824,1985,1451,557
8.546715733000383,1959,1375,498
8.549409696001021,1941,1370,510
8.552104784999756,1936,1329,485
8.554797707000034,1950,1354,511
8.557491671001117,2047,1414,547
8.560187926001163,2042,1424,542
8.562879723000151,2009,1457,571
8.565575020000324,1973,1402,511
8.568270775000201,1950,1374,507
8.570963447000395,1936,1349,493
8.573657203000039,1933,1310,476
8.576352374000635,2029,1409,545
8.579042880000998,2055,1421,541
8.581733676999647,2019,1447,560
8.584424307000518,1986,1440,550
8.58711472899995,1957,1377,507
8.589807943000778,1939,1370,508
8.592503031000888,1936,1328,480
8.59519507799996,1967,1370,528
8.597889750000832,2037,1414,543
8.600581672000772,2029,1424,544
8.60327621900069,1996,1462,573
8.605972474000737,1965,1388,501
8.608667438000339,1949,1374,507
8.611358485000892,1936,1347,495
8.61406282400094,1934,1315,488
8.616761786999632,2056,1414,551
8.619482501000675,2075,1426,543
8.622177298000679,2032,1458,565
8.624871595000513,1989,1429,537
8.627566475001004,1963,1383,509
8.63025823099997,1938,1371,507
8.632952527999805,1933,1325,478
8.635647949000486,1989,1387,530
8.638338413000383,2030,1417,538
8.64103362700007,2015,1428,549
8.643727257000137,1986,1461,565
8.646416346000478,1962,1379,501
8.649143808999725,1938,1370,509
8.651850272999582,1934,1341,492
8.65454348700041,1935,1336,499
8.657241117000012,2063,1414,547
8.659934496999995,2067,1427,543
8.66262483600076,2023,1464,565
8.66531709100127,1984,1413,527
8.668010221001168,1957,1379,507
8.670701810000537,1939,1363,501
8.673396232001323,1932,1308,467
8.676087654001094,2029,1406,544
8.67878145100076,2081,1433,544
8.681478123000488,2047,1455,560
8.684168462001253,2000,1462,560
8.68686017500113,1969,1389,503
8.689551430999927,1946,1379,510
8.692245394000565,1934,1341,485
8.69493727400004,1950,1360,511
8.69763373800015,2059,1419,547
8.700328701999752,2053,1429,543
8.703021414999967,2015,1467,570
8.705716671000118,1979,1406,511
8.708411008999974,1950,1378,509
8.71110114000112,1938,1357,499
8.713794728000721,1934,1311,481
8.716489192000154,2017,1406,546
8.71918228100003,2040,1415,541
8.721877744001176,2014,1441,559
8.724570874001074,1984,1433,542
8.727261046000422,1959,1377,501
8.729955009999685,1941,1371,506
8.732648639999752,1934,1328,481
8.73533943700022,1968,1371,528
8.738032776000182,2061,1418,547
8.740725155999826,2042,1430,550
8.743415369999639,2003,1469,576
8.746136042000217,1973,1392,506
8.748830172000453,1949,1377,507
8.751526136000393,1937,1349,496
8.754218058000333,1920,1316,482
8.75691248000112,2060,1415,550
8.759606985000573,2071,1425,543
8.762299074000111,2032,1459,563
8.764992079000876,1985,1427,533
8.76768604300014,1958,1383,503
8.770423298001333,1939,1372,509
8.77312013700066,1933,1323,475
8.77581155900043,1991,1381,528
8.778496606000772,2058,1424,542
8.781184403000225,2032,1439,554
8.783879908000017,1999,1467,563
8.786574245999873,1968,1387,497
8.789265626999622,1945,1377,506
8.79195959000026,1936,1343,489
8.794648387000052,1933,1342,499
8.79734160100088,2053,1414,544
8.800034440000672,2062,1424,543
8.80272511200019,2023,1460,566
8.805419117001293,1983,1410,526
8.80811303900009,1956,1378,504
8.810803751999629,1937,1361,500
8.81349759099976,1933,1315,474
8.816194263001307,2000,1398,541
8.818887560000803,2032,1411,538
8.821582607000892,2011,1434,550
8.82427682100024,1982,1444,553
8.826966575999904,1957,1374,496
8.82965674800107,1938,1367,503
8.832351336999636,1936,1332,486
8.835042217000591,1957,1353,511
8.837735764000172,2058,1415,545
8.840430686001127,2047,1425,544
8.843120524001279,2002,1462,574
8.845813404999717,1977,1402,511
8.848509952000313,1951,1376,507
8.851239081999665,1936,1357,499
8.853944504000538,1932,1312,479
8.856639301000541,2019,1406,544
8.859324848001052,2044,1417,538
8.862016561999553,2020,1446,554
8.86471131700091,1987,1431,538
8.867402447000131,1958,1377,502
8.87012391099961,1941,1370,507
8.872818416000882,1933,1327,483
8.875512380000146,1978,1377,529
8.87820396800089,2045,1409,539
8.880893348999962,2034,1433,545
8.883583687000282,2000,1470,576
8.886274067999693,1968,1391,506
8.888964448000479,1943,1375,511
8.891659287000948,1937,1347,496
8.894349792000867,1935,1328,491
8.897041547001209,2064,1415,550
8.899734051999985,2081,1429,547
8.90242568299982,2036,1463,567
8.905118271000902,1993,1433,539
8.907810860000609,1962,1389,511
8.910502865001035,1942,1373,510
8.913197287000003,1936,1327,482
8.915892626000641,1997,1390,534
8.918583505999777,2058,1423,543
8.921276136001325,2032,1438,551
8.923968683000567,1997,1467,563
8.926659689001099,1968,1387,503
8.92935590200068,1945,1378,511
8.932049615999858,1936,1338,489
8.934740620999946,1936,1343,501
8.937435877000098,2065,1419,546
8.940129090000482,2063,1429,543
8.94285167900125,2027,1466,565
8.945599558999675,1988,1419,529
8.948312022999744,1956,1385,509
8.951010945000235,1939,1364,498
8.953706158999921,1933,1315,471
8.956401372000983,2029,1408,546
8.959095211001113,2065,1424,544
8.961788425000123,2035,1451,558
8.964480554999682,1999,1455,554
8.967170977000933,1964,1386,503
8.969864939999752,1941,1376,511
8.972556987000644,1936,1334,485
8.975244826000562,1963,1363,511
8.977941873001328,2062,1421,546
8.980635003001225,2044,1424,538
8.983327550000467,2009,1469,572
8.986021222001,1972,1402,511
8.98871264400077,1954,1378,509
8.991404316000626,1936,1357,497
8.994132947000253,1934,1321,482
8.996828160001314,2017,1407,545
8.999521707000895,2036,1418,539
9.002214837000793,1998,1431,550
9.004910675999781,1980,1425,538
9.007608097999764,1955,1376,507
9.010301727999831,1939,1367,508
9.012997275000089,1934,1324,473
9.015693322000516,1986,1377,528
9.018436493999616,2054,1415,544
9.021168666000449,2034,1430,548
9.023864754999522,2000,1471,576
9.026557010000033,1968,1383,501
9.029252891001306,1947,1376,510
9.031947438001225,1936,1346,495
9.034638443001313,1936,1331,496
9.037333657001,2025,1406,544
9.040029787000094,2029,1415,534
9.042722916999992,2001,1447,560
9.04541667200101,1970,1407,526
9.048110343999724,1950,1371,503
9.050796016001186,1939,1360,498
9.053488980000111,1935,1315,471
9.056186652000179,2017,1395,542
9.05887949099997,2075,1424,547
9.061574454000947,2046,1445,556
9.064269001000866,2002,1463,560
9.066960423000637,1967,1387,503
9.069654053000704,1946,1379,511
9.072349850001046,1936,1342,492
9.075042772001325,1943,1349,511
9.077762528000676,2041,1413,552
9.080481991000852,2039,1424,545
9.083175288000348,2006,1453,561
9.085867585001324,1977,1405,526
9.08856038200065,1954,1377,511
9.091252137999618,1943,1360,497
9.093945685001017,1937,1313,469
9.09663935699973,2021,1408,547
9.099330528000792,2057,1423,542
9.10202395000124,2026,1447,560
9.104720747000101,1989,1443,549
9.107414086000063,1964,1379,502
9.110204175000035,1941,1377,509
9.112902430000759,1929,1329,480
9.11559818600108,1953,1366,528
9.118288982001104,2027,1408,541
9.120978279001065,2019,1423,537
9.123673617999884,1991,1458,573
9.126363123001283,1963,1382,503
9.129055587000039,1945,1365,507
9.131751384000381,1937,1344,494
9.134444430999793,1935,1321,486
9.137140978000389,2010,1404,544
9.13983352499963,2022,1408,534
9.142523488000734,2000,1439,556
9.145217785000568,1972,1414,528
9.147911874000783,1951,1370,497
9.15060600400102,1938,1360,506
9.153302218001045,1936,1319,476
9.156000140001197,1991,1380,528
9.158691937000185,2047,1414,541
9.161385067000083,2030,1433,548
9.164085073000024,1993,1463,563
9.166781994999837,1967,1378,502
9.16947991699999,1947,1375,507
9.172173504999591,1936,1343,493
9.174864968999827,1935,1337,498
9.177559556999768,2054,1411,550
9.180252228999962,2064,1424,546
9.182944026000769,2025,1461,564
9.185635657000603,1986,1407,511
9.188328287000331,1961,1386,505
9.191021167000144,1944,1367,499
9.193712588999915,1935,1318,471
9.196408845000406,2016,1401,544
9.199102890999711,2082,1427,544
9.20179906300109,2057,1456,555
9.204495609999867,2005,1465,560
9.207188198999575,1968,1391,506
9.209882163000657,1947,1382,511
9.212575585001105,1935,1342,488
9.215267007000875,1945,1360,511
9.217962304001048,2018,1409,544
9.220655934001115,2022,1421,541
9.223347230999934,1995,1456,567
9.226041403000636,1967,1392,511
9.228736115999709,1946,1370,507
9.231457288000456,1937,1351,496
9.234150210000735,1924,1310,477
9.236846298999808,2032,1408,549
9.239541013001144,2064,1422,542
9.242231643000196,2029,1451,560
9.244927982001172,1988,1440,548
9.24762456999997,1964,1381,506
9.250316367000778,1941,1374,509
9.253045831001145,1936,1328,483
9.25575025299986,1962,1372,527
9.258442800000921,2034,1411,542
9.261136180000904,2029,1425,545
9.263833769000485,1998,1460,571
9.266525691000425,1968,1387,503
9.26922011300121,1951,1376,510
9.271914742999797,1936,1346,493
9.274605956999949,1932,1326,491
9.277303670000038,2027,1405,546
9.280027717000848,2037,1415,534
9.282761181000751,2001,1446,560
9.285464935999698,1974,1414,528
9.288157525001225,1950,1364,497
9.290849322000213,1936,1360,504
9.293539452000914,1935,1315,475
9.296234249000918,1994,1388,538
9.298927212999843,2035,1419,542
9.301623176999783,2020,1431,548
9.30431622300057,1987,1456,562
9.307008187000974,1961,1376,497
9.309703525999794,1945,1373,507
9.312399030999586,1936,1338,487
9.315091370001028,1940,1344,503
9.317785833000016,2041,1410,545
9.320481380000274,2042,1422,542
9.32317334400068,2007,1456,569
9.32586397399973,1977,1403,524
9.328559771000073,1954,1375,506
9.331252109999696,1939,1360,498
9.333946740000101,1936,1311,470
9.336640954001268,1998,1394,544
9.33933291700123,2022,1409,537
9.342026423000789,2006,1430,547
9.34472159500001,1979,1440,548
9.347414474999823,1957,1372,501
9.350139647000105,1938,1366,506
9.352833819000807,1936,1328,483
9.355529033000494,1959,1360,511
9.358224745999905,2037,1412,540
9.360921335000967,2032,1423,541
9.363614674000928,2000,1459,567
9.366305012001249,1964,1392,509
9.36899805900066,1951,1372,503
9.371691063999606,1936,1349,494
9.374380819999715,1935,1313,480
9.377073908000966,2036,1409,547
9.379765289000716,2067,1424,541
9.382456626999556,2032,1453,561
9.385147340999538,1989,1437,539
9.387836846000937,1963,1380,502
9.390526351000517,1941,1363,499
9.39321818999997,1936,1329,479
9.395913529000609,1984,1381,529
9.398603908999576,2046,1419,545
9.40129870599958,2032,1430,547
9.403992585999731,1998,1468,570
9.406683092000094,1967,1384,503
9.409378764001303,1949,1375,511
9.412073519000842,1936,1344,496
9.414768149001247,1933,1328,495
9.417466988001252,2019,1405,544
9.420157284999732,2029,1411,539
9.422848207001152,2002,1443,560
9.425542045000839,1971,1410,528
9.42823459200008,1951,1367,503
9.4309256810011,1941,1360,501
9.43361893600013,1935,1315,478
9.436310733000937,1984,1382,531
9.439005947000624,2026,1409,535
9.441699535000225,2004,1424,547
9.444392957000673,1983,1452,560
9.447084462999555,1958,1370,496
9.449779385000511,1941,1369,507
9.45247447300062,1935,1334,490
9.455210354000883,1936,1342,505
9.457917151001311,2037,1408,546
9.46061219799958,2032,1418,541
9.463304745000642,2000,1456,570
9.465999250000095,1971,1397,511
9.468694254999718,1948,1371,505
9.471386385999722,1936,1358,499
9.47410889099956,1935,1304,467
9.476807355000346,2023,1405,544
9.479526360000818,2064,1423,542
9.48222182400059,2032,1449,560
9.484913996000614,1993,1443,555
9.487606876000427,1959,1381,507
9.490297381000346,1943,1374,507
9.4929892199998,1933,1327,477
9.495680850001008,1962,1366,523
9.498372813999595,2031,1411,542
9.50106502699964,2027,1422,544
9.503760366000279,1994,1457,570
9.506451704999563,1967,1392,507
9.509148709999863,1941,1372,506
9.511840590001157,1935,1347,496
9.514534887000991,1935,1317,484
9.517233601000044,2017,1406,542
9.519928939000238,2032,1411,537
9.522620820000157,2000,1441,560
9.525314700000308,1974,1422,533
9.528009580000798,1951,1370,499
9.530699210999956,1936,1360,503
9.533393133000573,1933,1323,478
9.536089930001253,1978,1375,525
9.538783600999523,2039,1414,542
9.541482272999929,2029,1429,547
9.544177278999996,1994,1463,566
9.546866116999809,1964,1381,496
9.549558538999918,1947,1375,505
9.552256295000916,1934,1342,494
9.554949258001216,1935,1329,496
9.557645847000458,2002,1399,543
9.560340477000864,2010,1406,535
9.563962693000576,1987,1435,559
9.566669990001174,1964,1401,526
9.56936674499957,1942,1362,502
9.572062250001181,1937,1335,491
9.574752881000677,1933,1317,487
9.577448052999898,2005,1398,541
9.580144391000431,2016,1406,535
9.58283839700016,1998,1435,555
9.58553065200067,1968,1408,528
9.588222824000695,1952,1363,501
9.590915329001291,1936,1359,505
9.593607376000364,1934,1314,478
9.596299005999754,2009,1387,531
9.5989885529998,2087,1426,543
9.601686224999867,2063,1449,551
9.604382731000442,2013,1478,572
9.607074986000953,1969,1391,502
9.609769116001189,1950,1381,507
9.612465746000453,1936,1344,487
9.615160043000287,1935,1344,499
9.617854424001052,2021,1407,544
9.620548095999766,2023,1411,539
9.623233643000276,2000,1450,562
9.625926273000005,1968,1402,511
9.628621820000262,1947,1370,501
9.631313742000202,1936,1358,497
9.634009622001031,1932,1309,466
9.63670337700023,2000,1393,537
9.639393633000509,2032,1411,538
9.642116180000812,2011,1429,549
9.644812352000372,1984,1444,550
9.647527856999659,1958,1373,497
9.650220986999557,1941,1367,509
9.652917450999666,1936,1329,486
9.655648915000711,1956,1355,511
9.658351420001054,2029,1409,543
9.661047592000614,2021,1411,543
9.663742472001104,1991,1454,569
9.666433311000219,1965,1390,509
9.669126816001153,1938,1366,506
9.671819322000374,1936,1347,496
9.674511160001202,1934,1310,481
9.67720779100091,1999,1394,546
9.679903046000618,2013,1403,537
9.68259296799988,1995,1430,558
9.685284639999736,1968,1418,535
9.687976062001326,1951,1364,496
9.690670109001076,1936,1361,505
9.693360822000614,1935,1321,474
9.696051910999813,1982,1369,527
9.698743000000832,2046,1413,541
9.701436088000264,2032,1425,545
9.704127967999739,1994,1465,570
9.706821724001202,1968,1383,502
9.709519604000889,1950,1372,509
9.712212484000702,1936,1346,494
9.71490378099952,1935,1328,490
9.717599662000794,2009,1405,543
9.720291584000734,2016,1408,538
9.722981922001054,1994,1440,558
9.725674053001057,1968,1408,528
9.728369516000384,1948,1365,499
9.731060187999901,1936,1358,503
9.733754984999905,1932,1314,477
9.736449157000607,1973,1376,532
9.739136621001308,2000,1398,535
9.741829959000825,1989,1413,545
9.744525465001061,1969,1442,559
9.747217845000705,1952,1361,496
9.749910934000582,1937,1360,501
9.752606022000691,1933,1328,485
9.755296028000885,1936,1333,500
9.75799065800129,2022,1402,537
9.76068420500087,2026,1410,537
9.76337450200117,1998,1446,563
9.766089549000753,1967,1393,526
9.76878284600025,1949,1367,502
9.771499808999579,1935,1357,499
9.774195440000767,1930,1306,470
9.776890070001173,1999,1392,539
9.779586450000352,2032,1408,535
9.782276956000715,2007,1428,550
9.784968003001268,1978,1435,547
9.787658716000806,1953,1370,502
9.790349095999773,1937,1365,507
9.793041685001299,1936,1322,483
9.795734399000139,1965,1359,511
9.798426987001221,2063,1415,549
9.801119450999977,2043,1427,547
9.803809290000572,2007,1466,571
9.806500337001125,1975,1402,522
9.809193592000156,1947,1377,509
9.811889306000012,1935,1355,498
9.814576352000586,1927,1312,479
9.81726931600133,2017,1406,546
9.819963321000614,2041,1415,538
9.822655702000702,2013,1443,557
9.825349706999987,1982,1427,539
9.828042129000096,1955,1366,499
9.830731509000543,1941,1366,506
9.833424722999553,1935,1327,479
9.836121520000233,1968,1373,525
9.838814650000131,2041,1415,540
9.841510154999924,2031,1426,545
9.844202369000413,1994,1463,573
9.846894915999655,1965,1383,502
9.849589254999955,1939,1371,507
9.852283468000678,1935,1344,492
9.85497497399956,1929,1325,487
9.857700646000012,2005,1399,543
9.860407484000461,2017,1408,535
9.86309907299983,1996,1438,555
9.865795203000744,1967,1407,525
9.868488709000303,1947,1364,497
9.871180964000814,1936,1358,499
9.873879094000586,1935,1312,473
9.876576266000484,1999,1383,535
9.879265771000064,2063,1421,543
9.881986567999775,2034,1439,554
9.88468094900054,2000,1466,566
9.887370870999803,1968,1385,501
9.890088625999852,1950,1377,511
9.892780673000743,1936,1342,487
9.89549676200113,1939,1347,506
9.898191891999886,2020,1408,548
9.900888647000102,2016,1410,540
9.903581235999809,1985,1445,561
9.906269450000764,1958,1392,511
9.908960372000365,1936,1362,498
9.91165521000039,1931,1348,496
9.914346049001324,1922,1300,469
9.917039971000122,1984,1385,539
9.919734934001099,2009,1399,534
9.922423815000002,1993,1423,552
9.925118237000788,1963,1426,547
9.927811075000136,1953,1363,496
9.930503622001197,1937,1363,501
9.933197002999805,1931,1323,481
9.935890800001289,1961,1357,511
9.938581804999558,2027,1405,538
9.941277392999837,2021,1415,538
9.943970690001152,1989,1455,560
9.946661154001049,1965,1390,507
9.94935390899991,1947,1370,499
9.95204691500112,1936,1345,495
9.954736544999832,1930,1313,483
9.957428509000238,1991,1394,544
9.960122555999988,1999,1398,537
9.962813144000393,1983,1425,553
9.965508774001137,1965,1410,531
9.968200029999934,1947,1361,497
9.970890160000636,1936,1357,503
9.973583249000512,1932,1316,479
9.976276796000093,1962,1365,526
9.978966300999673,2001,1397,530
9.981654598001114,1997,1409,537
9.984345394999764,1971,1450,561
9.987036816999534,1953,1361,497
9.98972952999975,1943,1360,503
9.992420786000366,1935,1334,487
9.995109290999608,1925,1322,491
9.99780050499976,2003,1397,544
10.000494052001159,2019,1405,536
10.003183681999872,1997,1435,560
10.005877562000023,1968,1402,528
10.008569984000133,1951,1363,500
10.01126098900022,1938,1359,503
10.013954078000097,1935,1313,473
10.01665020800101,1989,1382,534
10.019385130000956,2052,1415,545
10.022139968999909,2029,1431,552
10.024836390999553,1995,1456,561
10.027534105000086,1962,1379,501
10.030228027000703,1942,1371,509
