time,y1,y2,y3
0.006122594999396824,1936,916,437
0.00889210099921911,1925,994,387
0.01161768900055904,2079,1195,461
0.014355403000081424,2109,1279,466
0.017088200000216602,2061,1355,502
0.01983662199927494,2000,1350,493
0.022566669000298134,1959,1326,469
0.025298049000411993,1936,1328,481
0.028024762999848463,1924,1285,455
0.030757393999010674,2013,1366,511
0.033486857000752934,2083,1411,532
0.036262071000237484,2058,1435,542
0.03899553500014008,2002,1457,553
0.04172491499957687,1966,1373,493
0.04445279500032484,1938,1367,498
0.04719121800007997,1927,1328,476
0.049932640000406536,1958,1358,506
0.052665728000647505,2089,1423,541
0.05539373399915348,2080,1434,540
0.05812157199943613,2023,1472,564
0.06084845300028974,1974,1399,501
0.06357391600067785,1943,1376,498
0.06630154699996638,1929,1348,483
0.06903238599988981,1920,1315,471
0.07176034899930528,2090,1424,542
0.07449110500056122,2112,1441,535
0.0772203599990462,2064,1471,560
0.0799461570004496,2000,1436,529
0.08267507900018245,1959,1385,496
0.08540279299995746,1935,1367,496
0.08812938099981693,1922,1314,464
0.09089846999995643,2019,1394,530
0.09362972599956265,2083,1427,532
0.09636060599950724,2051,1448,545
0.09909515300023486,2000,1459,551
0.10182778300077189,1960,1381,491
0.10455920499953208,1936,1370,497
0.10729550199903315,1922,1328,471
0.11002484100026777,1968,1360,506
0.11275247199955629,2103,1428,543
0.11547764399983862,2093,1444,542
0.11820827399969858,2031,1477,569
0.12093723799989675,1978,1406,502
0.12366232599924842,1943,1378,500
0.12639037299959455,1927,1351,490
0.12911704500038468,1920,1319,479
0.13184650900075212,2081,1419,544
0.13457868099976622,2086,1430,541
0.1373076449999644,2037,1462,558
0.14003252499969676,1986,1424,526
0.14276053100002173,1950,1379,495
0.14548707799986005,1929,1361,496
0.14834566699937568,1922,1313,464
0.15109592199951294,2023,1395,538
0.15383205199941585,2094,1424,537
0.15656239099917002,2061,1451,549
0.1592892299995583,2000,1456,545
0.16201769299914304,1959,1379,495
0.164749531999405,1935,1370,496
0.16747903800023778,1922,1327,470
0.17073237700060417,1969,1366,511
0.1734297160001006,2082,1424,544
0.17612022100001923,2059,1438,544
0.17884106000019528,2001,1465,555
0.18153206500028318,1959,1377,491
0.18425469599969801,1935,1367,496
0.1869462430004205,1910,1320,464
0.18963795600029698,1930,1337,490
0.19232658600049035,2059,1411,537
0.19501646699973207,2060,1424,536
0.19770755500030646,2013,1456,560
0.20039818599980208,1970,1402,511
0.20308202399974107,1941,1367,496
0.2057736129991099,1926,1350,491
0.2084672849996423,1918,1298,460
0.21115474799989897,2006,1392,531
0.2138426290002826,2038,1411,531
0.216543967000689,2015,1430,545
0.21922988900041673,1975,1435,544
0.22191535300044052,1946,1362,490
0.22460231699915312,1929,1360,496
0.22729136399902927,1919,1322,468
0.22998232700047083,1949,1351,502
0.2326728739990358,2087,1422,539
0.2353599630005192,2085,1435,542
0.23806809300003806,2029,1472,562
0.24076755699934438,1978,1401,510
0.24346460400010983,1940,1374,499
0.246162526000262,1922,1349,489
0.24885594800070976,1911,1305,470
0.2515452860006917,2003,1397,535
0.25423666700044123,2030,1408,528
0.2569264640005713,2001,1435,550
0.25962405199970817,1968,1419,530
0.2623178909998387,1938,1360,494
0.2650080629991862,1926,1356,496
0.2676914849998866,1917,1312,464
0.27038223999988986,1965,1362,511
0.2730764120005915,2055,1409,538
0.2757640010004252,2035,1424,537
0.27845388099922275,1998,1459,562
0.28114342799926817,1959,1377,496
0.28383164099977876,1930,1361,497
0.28652256299938017,1919,1334,484
0.2892122350003774,1917,1313,481
0.2919022820005921,2055,1408,544
0.2945943710001302,2069,1421,534
0.2972837929992238,2028,1454,559
0.2999717980001151,1979,1419,526
0.30266355399908207,1943,1370,494
0.30535239200071373,1922,1359,496
0.3080452720005269,1917,1310,464
0.31073806899985357,1984,1374,511
0.31342361600036384,2055,1414,533
0.3161103299989918,2032,1428,541
0.3187998350003909,1991,1461,560
0.3214896739991673,1955,1372,493
0.3242125130000204,1934,1362,498
0.32690676799938956,1918,1328,479
0.3295975229993928,1921,1328,491
0.3322869029998401,2043,1407,538
0.33497553400047764,2047,1417,531
0.33766295600071317,2003,1447,555
0.34035179400052584,1967,1398,510
0.34303759099930176,1937,1362,493
0.34572551299970655,1921,1347,491
0.34841385199979413,1914,1299,461
0.351099814999543,2015,1392,533
0.3537881539996306,2069,1419,539
0.3564864509990002,2036,1440,545
0.3591755399993417,1988,1453,547
0.36186541999995825,1951,1374,494
0.3645559249998769,1926,1365,497
0.3672433470001124,1917,1326,474
0.36993485299899476,1940,1347,497
0.3726557749996573,2069,1418,538
0.3753466969992587,2064,1430,537
0.37803645200074243,2011,1462,560
0.3807250819991168,1968,1401,503
0.38341208699966955,1936,1370,497
0.3861005929993553,1920,1344,487
0.3887904729999718,1915,1296,463
0.3914800620004826,2043,1408,539
0.3941691919990262,2082,1426,533
0.3968584470003407,2037,1453,547
0.39956120299939357,1988,1441,534
0.40225899899996875,1948,1374,494
0.40494950500033156,1926,1364,496
0.4076372180006729,1916,1319,469
0.4103390569998737,1960,1362,510
0.4130333539997082,2045,1411,533
0.41571952599952056,2032,1423,535
0.41840740599946,1991,1456,560
0.4210959529991669,1951,1376,495
0.42378479199942376,1929,1360,497
0.42647525500069605,1917,1335,484
0.42916646899902844,1911,1306,475
0.4318548489991372,2043,1407,539
0.43454523000036716,2073,1419,531
0.4372347770004126,2030,1451,553
0.4399213239994424,1981,1423,526
0.44260941199900117,1943,1367,496
0.4452967090001039,1922,1359,495
0.4479862560001493,1916,1311,464
0.45067830299922207,1988,1376,511
0.45337135000045237,2067,1422,538
0.4560606049999478,2041,1436,544
0.45874994400037394,1994,1463,567
0.4614389910002501,1953,1375,493
0.46412653799961845,1930,1364,496
0.4668582520007476,1913,1331,479
0.4695506739990378,1910,1320,482
0.4722670119990653,2029,1401,533
0.47496014299940725,2034,1409,532
0.47765252299905114,2000,1444,554
0.4803424029996677,1966,1397,506
0.4830324499998824,1936,1360,495
0.48572320499988564,1920,1347,494
0.48841358599929663,1911,1297,464
0.4911007579994475,2011,1389,531
0.49378968000019086,2073,1418,535
0.49647985199953837,2039,1440,547
0.4991718149994995,1988,1453,549
0.5018620289993123,1950,1374,490
0.5045519510003942,1926,1363,496
0.5072386230003758,1914,1323,471
0.5099316699997871,1926,1341,496
0.5126175919995148,2021,1399,533
0.5153036800002155,2018,1408,529
0.5179904359993088,1984,1443,558
0.520679191000454,1950,1386,500
0.5233644460004143,1931,1355,490
0.5260514929996134,1917,1335,486
0.5287407899995742,1914,1288,455
0.5314277950001269,1983,1386,534
0.5341159260005952,2007,1393,527
0.5368041389992868,1989,1417,541
0.5394914360003895,1957,1423,531
0.5421814000001177,1934,1353,483
0.5448703219990421,1919,1349,493
0.5475591600006737,1913,1307,465
0.5502570819990069,1949,1345,503
0.5529486710001947,2038,1402,534
0.5556371759994363,2029,1417,531
0.5583262649997778,1990,1453,559
0.5610151870005211,1952,1380,496
0.5637015249994874,1927,1358,494
0.5663896559999557,1915,1339,484
0.5690774529994087,1908,1298,469
0.5717636659992422,2010,1394,535
0.5744870880007511,2034,1405,528
0.5771788849997392,2003,1435,545
0.5798680570005672,1967,1414,525
0.5825587710005493,1936,1360,490
0.5852486099993257,1920,1351,491
0.5879354480002803,1910,1306,463
0.5906243280005583,1968,1365,511
0.5933131250003498,2043,1408,531
0.5960122969991062,2027,1421,534
0.5987200529998518,1985,1471,574
0.6014191829999618,1950,1378,502
0.6041108549998171,1931,1365,506
0.6068019849990378,1917,1333,490
0.6094980739999301,1909,1319,493
0.6122204540006351,1979,1391,541
0.6149112509992847,1986,1392,530
0.6175991729996895,1968,1422,555
0.6202870119996078,1940,1383,511
0.6229736419991241,1925,1346,494
0.6256606469996768,1919,1341,495
0.6283485690000816,1915,1296,467
0.6310331160002534,1980,1374,530
0.6337211219997698,2016,1398,537
0.6364166269995621,1999,1419,543
0.6391045489999669,1968,1439,558
0.6417952209994837,1938,1359,495
0.6444856430007349,1924,1351,502
0.6471751900007803,1919,1325,480
0.6498699029998534,1920,1331,498
0.65256269999918,2010,1393,539
0.6552509140001348,2005,1399,534
0.6579392530002224,1979,1435,557
0.6606292579999717,1952,1383,510
0.6633159709999745,1934,1355,496
0.6660043520005274,1919,1341,494
0.6686929820007208,1917,1296,463
0.671380653999222,1983,1386,538
0.6740674089996901,2017,1399,534
0.6767581650001375,1998,1421,546
0.6794468779989984,1968,1427,542
0.6821397170006094,1939,1359,494
0.6848300139990897,1918,1358,500
0.687517726999431,1919,1317,481
0.6902050240005337,1942,1345,511
0.6928929879995849,1989,1393,539
0.6955788680006663,1989,1397,534
0.6982706649996544,1965,1432,560
0.7009644209992985,1943,1371,499
0.703653843000211,1929,1347,495
0.7063437229990086,1917,1330,488
0.7090338950001751,1917,1296,476
0.7117256500005169,1968,1382,538
0.7144221550006478,1981,1387,528
0.717119910999827,1966,1409,542
0.7198081240003376,1941,1398,528
0.7224951709995366,1929,1346,493
0.7251844679994974,1920,1344,500
0.7278730149992043,1920,1306,470
0.7305628949998209,1953,1355,523
0.7332547339992743,2011,1395,534
0.7359424480000598,2000,1407,541
0.7386322450001899,1971,1442,562
0.74132145799922,1946,1363,496
0.7440097140006401,1928,1354,499
0.7466986769995856,1923,1328,486
0.7493920580000122,1917,1311,483
0.7520823960003327,1985,1391,541
0.7547717350007588,1999,1392,529
0.7574599899999157,1977,1423,551
0.7601465370007645,1953,1394,511
0.7628705419992912,1935,1353,495
0.7655615059993579,1926,1344,497
0.768275177999385,1919,1303,471
0.7709685999998328,1967,1364,529
0.7736606470007246,2009,1399,535
0.7763506110004528,1998,1414,543
0.779038908000075,1971,1443,556
0.7817289539998455,1946,1358,494
0.7844190010000602,1936,1359,498
0.7871072979996825,1926,1328,485
0.7897954700001719,1920,1328,495
0.7924824340007035,1952,1379,529
0.7951691889993526,1950,1376,527
0.7978563609995035,1937,1410,549
0.8005490329996974,1927,1360,500
0.8032439130001876,1920,1334,491
0.8059374599997682,1913,1329,494
0.808628757000406,1914,1288,464
0.8113194710003881,1971,1374,529
0.8140089759999682,2017,1395,529
0.8166965229993366,2000,1419,541
0.8193841539996356,1969,1431,549
0.8220734089991311,1947,1358,492
0.8247615809996205,1929,1356,500
0.8274500030001946,1923,1323,481
0.8301390500000707,1936,1344,509
0.8328290549998201,2020,1404,541
0.8355179770005634,2031,1413,538
0.8382093990003341,1995,1452,563
0.8409034460000839,1959,1392,509
0.8435880760007421,1938,1360,497
0.8462792059999629,1926,1344,494
0.8489756700000726,1920,1296,470
0.8516665499992087,1987,1392,542
0.8543546389992116,2010,1402,534
0.857044477999807,1990,1425,550
0.859730899999704,1963,1415,531
0.8624176970006374,1937,1358,494
0.865106201999879,1931,1357,501
0.8677951650006435,1922,1316,475
0.8704843790001178,1954,1359,511
0.8731730510007765,2024,1403,535
0.8758622229997854,2012,1414,535
0.8785516030002327,1983,1447,561
0.8812404839991359,1953,1374,498
0.883927238999604,1936,1360,501
0.886615035999057,1923,1337,492
0.8893030409999483,1920,1307,478
0.8919890050001413,2009,1399,542
0.894677676998981,2031,1407,530
0.8973658899994916,2001,1435,559
0.9000571460001083,1969,1411,531
0.9027509009993082,1939,1357,496
0.9054408649990364,1927,1357,499
0.908128912000393,1920,1313,474
0.9108450419989822,1957,1367,527
0.9135388390004664,2009,1401,537
0.9162518859993725,1999,1414,540
0.9189409329992486,1971,1449,571
0.9216302299992094,1947,1361,496
0.9243171519992757,1936,1357,503
0.9270044490003784,1926,1328,487
0.9296937039998738,1921,1323,491
0.9323833759990521,2006,1395,541
0.935071173000324,2010,1401,531
0.9377592609998828,1984,1433,558
0.9404466420000972,1962,1392,511
0.9431325219993596,1937,1359,498
0.9458196939995105,1924,1348,499
0.9485063239990268,1921,1301,465
0.9512084130001313,1991,1382,538
0.9538964179992035,2041,1409,540
0.9565847569992911,2020,1428,555
0.9592753870001616,1983,1451,557
0.9619642670004396,1956,1366,493
0.964653814000485,1936,1363,502
0.96734282000034,1929,1330,483
0.9700312000004487,1930,1341,501
0.9727212470006634,2025,1405,540
0.975409586000751,2026,1410,535
0.9781274239994673,1995,1444,561
0.9808191379997879,1963,1392,511
0.9835071849993255,1941,1361,498
0.9861958149995189,1931,1346,496
0.9888834869998391,1925,1299,467
0.9915698259992496,1983,1391,543
0.9942579559992737,2012,1402,535
0.9969475029993191,1995,1424,550
0.9996360080003797,1966,1425,540
1.0023718470001768,1947,1360,494
1.0050871860003099,1931,1360,500
1.0077771910000592,1929,1321,479
1.0104656130006333,1955,1358,511
1.0131688679994113,2027,1407,542
1.0158765399992262,2011,1413,543
1.0185700450001605,1984,1451,565
1.0212577170004806,1957,1377,499
1.0239445980005257,1936,1360,499
1.0266501030000654,1930,1340,494
1.0293610249991616,1923,1310,482
1.0320598220005195,2002,1399,550
1.0347522440006287,2017,1402,536
1.037443582999913,1995,1431,557
1.0401362550001068,1966,1409,528
1.042904092999379,1936,1360,496
1.045593889999509,1936,1354,497
1.0482846459999564,1924,1310,467
1.0509715259995573,1983,1374,528
1.0536614480006392,2035,1410,538
1.056347702999119,2019,1424,546
1.0590356669999892,1984,1459,566
1.0617264640004578,1954,1371,496
1.064415218999784,1936,1362,501
1.0671023079994484,1929,1331,491
1.0697913130006782,1919,1328,496
1.0724818180005968,1987,1393,537
1.075172864999331,1996,1395,533
1.0778634950002015,1974,1430,558
1.0805528340006276,1955,1387,511
1.0832409640006517,1936,1353,496
1.085930470000676,1933,1346,497
1.0886267250007222,1927,1299,471
1.0913131470006192,1982,1378,531
1.0939998190006008,2015,1402,533
1.0966889909996098,2000,1421,544
1.0993758290005644,1975,1437,554
1.1020648760004406,1951,1362,496
1.1047538820002956,1936,1357,503
1.1074425539991353,1929,1327,481
1.110133058999054,1936,1341,501
1.1128212309995433,2012,1401,543
1.11552182000014,2019,1409,537
1.1182081169990852,1989,1442,560
1.1208922879995953,1962,1389,511
1.123576377000063,1942,1360,499
1.1262633410005947,1931,1346,496
1.1289510959995823,1927,1299,466
1.1316389759995218,1988,1388,543
1.134327857000244,2019,1406,537
1.1370179040004587,1999,1429,550
1.1397054089993617,1969,1427,545
1.1423945810001896,1947,1361,496
1.1450827110002137,1934,1360,505
1.1477692579992436,1927,1322,480
1.150457137999183,1949,1353,511
1.1531444350002857,2034,1408,548
1.1558314819994848,2031,1422,545
1.1585183209990646,2000,1456,569
1.161208493000231,1968,1390,509
1.1638938729993242,1942,1365,503
1.166583919999539,1930,1346,496
1.169272342000113,1921,1309,480
1.1719607220002217,2019,1407,545
1.1746511029996327,2046,1417,542
1.1773397750002914,2015,1443,560
1.180069738000384,1980,1426,535
1.182758909999393,1950,1370,496
1.1854479989997344,1933,1361,504
1.1881338370003505,1927,1321,475
1.1908649679990049,1968,1372,527
1.1935552230006579,2033,1413,544
1.196268603000135,2025,1425,545
1.198957025000709,1985,1459,570
1.201645572000416,1959,1375,497
1.2043574109993642,1938,1363,506
1.2070463330001076,1934,1337,490
1.2097370470000897,1921,1321,494
1.2124272599994583,2001,1400,543
1.21511930700035,2006,1407,533
1.2178073539998877,1982,1431,559
1.2204943180004193,1961,1396,524
1.223179655999047,1943,1360,500
1.2258676199999172,1929,1351,501
1.2285632500006614,1927,1307,473
1.2312547139990784,1977,1377,529
1.2339466359990183,2017,1405,537
1.2366394750006293,2003,1421,547
1.239338854999005,1975,1447,558
1.2420284019990504,1952,1363,496
1.2447206569995615,1936,1360,500
1.2474084539990145,1930,1330,486
1.2501002509998216,1936,1339,503
1.252790255999571,1997,1394,544
1.2554775120006525,2000,1399,532
1.2581677250000212,1974,1434,560
1.2608569389994955,1955,1384,509
1.2635442360005982,1936,1354,497
1.2662336159992265,1933,1344,496
1.2689248299993778,1927,1297,464
1.2716127519997826,1983,1389,537
1.2743040490004205,2003,1399,533
1.276994220999768,1995,1422,547
1.2796828930004267,1967,1425,543
1.2823708149990125,1948,1359,495
1.2850605700004962,1934,1360,500
1.2877487000005203,1927,1321,479
1.29043766399991,1946,1349,508
1.2931291269997018,2011,1399,544
1.2958208830004878,1998,1405,534
1.2985121799993067,1979,1442,560
1.301204018000135,1953,1380,500
1.303894732000117,1938,1357,497
1.306586654000057,1929,1341,489
1.309276284000589,1927,1301,471
1.3119636640003591,2001,1398,542
1.314654170000722,2022,1406,535
1.317344716999287,2000,1431,555
1.3200331799998821,1975,1422,535
1.3227202689995465,1946,1361,495
1.3254086489996553,1937,1360,500
1.3280949050003983,1932,1318,479
1.3307849930006341,1946,1360,511
1.3334757480006374,2007,1398,539
1.3361652120001963,2005,1411,538
1.3388868420006474,1980,1452,565
1.3415784310000163,1953,1367,495
1.3442686859998503,1940,1360,497
1.3469563170001493,1931,1335,486
1.3496470720001525,1930,1317,483
1.3523347020000074,2000,1396,541
1.355021081999439,2006,1403,531
1.357710837999548,1991,1431,557
1.3604003010004817,1965,1404,528
1.3630920979994698,1946,1359,496
1.365783437000573,1936,1355,496
1.3684766089991172,1929,1312,471
1.3711656979994586,1975,1374,527
1.3738567450000119,2037,1410,541
1.376546249999592,2031,1427,545
1.3792332550001447,1991,1462,565
1.3819538440002361,1964,1374,497
1.3846468070005358,1941,1370,503
1.3873343960003695,1934,1335,489
1.3900229850005417,1935,1338,498
1.39271265699972,2032,1408,544
1.3954037870007596,2033,1417,534
1.398093792000509,2001,1450,560
1.400783422999666,1970,1401,511
1.4034703439992882,1946,1371,498
1.4061592250000103,1936,1359,499
1.4088486050004576,1927,1312,469
1.4115419440004189,1997,1392,540
1.4142314069995336,2046,1418,542
1.4169238289996429,2023,1437,553
1.4196116259990958,1986,1449,554
1.4222981729999447,1959,1373,496
1.4249861369989958,1937,1367,505
1.427671516999908,1935,1333,481
1.4303629389996786,1941,1348,508
1.433053235999978,2023,1408,545
1.4357419080006366,2027,1412,539
1.4384304129998782,1995,1450,562
1.4411194189997332,1968,1394,511
1.4438057160004973,1939,1365,505
1.4464944709998235,1936,1348,496
1.449182058999213,1929,1301,467
1.4518705230002524,2009,1403,547
1.4545614870003192,2038,1413,539
1.457251241999984,2010,1438,553
1.4599408720005158,1978,1433,545
1.4626325440003711,1955,1369,498
1.4653230080002686,1936,1365,504
1.468010595999658,1929,1326,481
1.470699727000465,1959,1361,524
1.4733880240000872,2027,1408,543
1.476076278999244,2017,1420,543
1.4787649509999028,1989,1454,566
1.4814532899999904,1965,1382,506
1.4841412120003952,1943,1364,503
1.486871508999684,1931,1344,493
1.4895633889991586,1928,1316,482
1.4922762690002855,1999,1398,546
1.4949675659991044,2011,1403,538
1.4976577800007362,1986,1430,554
1.5003467019996606,1962,1408,530
1.5030347899992194,1944,1361,496
1.5057222539999202,1935,1351,501
1.5084094680005364,1933,1314,474
1.5110968480003066,1975,1372,527
1.5137852280004154,2018,1407,537
1.5164738580006087,2009,1423,545
1.5191654469999776,1982,1456,570
1.5218634520006162,1958,1370,496
1.5245502079997095,1943,1365,506
1.5272375879994797,1935,1337,492
1.5299244269990595,1934,1328,494
1.5326121399994008,2000,1398,545
1.5352997289992345,2009,1403,535
1.537988234000295,1989,1435,559
1.5406779479999386,1966,1398,511
1.5433664110005338,1941,1360,498
1.5460543329991197,1930,1350,499
1.5487435889990593,1924,1301,469
1.551431051999316,1973,1377,531
1.5541207660007785,2006,1399,538
1.5568116049998935,1993,1419,543
1.5595017350005946,1973,1440,553
1.5621909479996248,1952,1360,495
1.5648797869998816,1936,1360,502
1.5675681669999904,1930,1328,485
1.5702591730005224,1936,1339,502
1.5729478030007158,2018,1403,543
1.5756362669999362,2019,1409,541
1.578326188999199,1995,1445,561
1.581013234999773,1966,1394,522
1.5842214500007685,1947,1361,502
1.5869584970005235,1935,1353,497
1.589691335999305,1931,1313,488
1.592420883000159,2003,1399,547
1.5951477630005684,2022,1407,534
1.5978765599993494,1989,1434,560
1.60060698199959,1968,1405,527
1.6033326540000417,1943,1360,498
1.6060671600007481,1936,1358,497
1.6087966649993177,1931,1303,471
1.6115226710007846,1981,1382,531
1.6142526759995235,2018,1407,535
1.6169822230003774,2002,1424,547
1.6197248120006407,1973,1441,555
1.6224569839996548,1953,1362,496
1.625184280999747,1938,1361,505
1.6279109110000718,1929,1328,480
1.630644625000059,1945,1350,511
1.633371879999686,2006,1399,541
1.6360969269990164,1997,1407,542
1.6388240159994893,1973,1423,559
1.6415551049994974,1954,1360,496
1.6442831099993782,1941,1347,496
1.6470106990000204,1934,1332,489
1.6497405789996265,1931,1310,479
1.6524696680007764,2015,1399,542
1.655195797999113,2028,1405,535
1.6579237200003263,2000,1439,558
1.6606555590005883,1968,1406,526
1.6633864390005328,1950,1362,498
1.6661432780001633,1933,1355,500
1.668885032999242,1934,1309,474
1.671618414000477,1990,1389,539
1.6743489609998505,2029,1410,540
1.677078132999668,2012,1429,551
1.6798043050002889,1981,1438,551
1.6825319769995986,1955,1366,496
1.6852637739993952,1937,1362,504
1.6879924879995087,1933,1327,479
1.69072132600013,1947,1354,502
1.6934489569994184,2011,1403,540
1.6961741289997008,2002,1408,534
1.6989430089997768,1979,1447,563
1.7016734730004828,1958,1371,499
1.7044009370001731,1939,1360,499
1.7071249420005188,1935,1334,490
1.7098514059998706,1931,1314,482
1.712579368999286,2032,1409,546
1.715305833000457,2047,1418,539
1.7180374630006554,2013,1453,560
1.720792468999207,1981,1411,527
1.72353214100076,1954,1373,505
1.726262604999647,1936,1360,506
1.728990943000099,1930,1314,473
1.731718364999324,1994,1392,537
1.734447786999226,2019,1409,543
1.73717733400008,2000,1425,556
1.7398995059993467,1973,1439,553
1.7426308449994394,1951,1364,497
1.745362641999236,1936,1361,506
1.748091105999265,1934,1328,481
1.7508224030007113,1955,1359,511
1.753553450000254,2011,1403,543
1.7562855800006218,2001,1409,538
1.7590112939997198,1980,1449,563
1.7617412990002776,1954,1372,496
1.7644689299995662,1937,1360,501
1.7671942269989813,1934,1339,493
1.7699219410005753,1930,1319,491
1.772650363000139,2000,1395,545
1.7753763679993426,2010,1401,535
1.7781032900002174,1985,1434,560
1.780833544999041,1961,1393,511
1.7835610509991966,1940,1359,497
1.7868236399990565,1935,1353,501
1.78951793700071,1930,1308,473
1.7922368590006954,2011,1401,548
1.7949281979999796,2041,1410,542
1.7976193279992003,2015,1440,560
1.8003115419996902,1981,1423,535
1.8030000060007296,1955,1369,496
1.8056896359994425,1937,1363,503
1.8083782249996148,1935,1323,475
1.8110681460002525,1953,1369,528
1.8137584020005306,1997,1398,538
1.8164472400003433,1987,1408,535
1.8191343290000077,1970,1444,563
1.8218293339996308,1946,1363,496
1.8245259230006923,1937,1357,499
1.8272111780006526,1931,1333,490
1.8298963920005917,1931,1319,490
1.8325847300002351,1992,1393,540
1.8352725269996881,2003,1397,532
1.8379624080007488,1984,1429,556
1.8406534129990177,1959,1399,522
1.843342627000311,1946,1359,496
1.846032548999574,1933,1351,502
1.8487222620005923,1931,1309,473
1.851410768000278,1980,1375,534
1.8540998560001754,2032,1410,543
1.8567890699996497,2014,1424,545
1.8594759080006042,1984,1456,560
1.862163788999169,1961,1370,496
1.8648508770002081,1939,1366,506
1.8675390490006976,1936,1334,488
1.87022842999977,1931,1335,502
1.872916226999223,1984,1394,544
1.8756040650005161,1983,1393,535
1.878292278999652,1968,1426,559
1.880980116999126,1951,1382,511
1.8836765390005894,1940,1349,496
1.8863670859991544,1933,1349,498
1.8890575080004055,1930,1306,468
1.8917436800002179,1995,1386,538
1.894433351999396,2026,1408,535
1.8971214819994202,2005,1424,547
1.899808653999571,1973,1440,554
1.9024951179999334,1957,1363,496
1.9051824149992171,1938,1361,505
1.9078699199999392,1930,1328,483
1.910559383999498,1943,1351,508
1.9132477639996068,2032,1409,546
1.9159347280001384,2026,1418,542
1.918621857999824,1999,1452,564
1.921312571999806,1968,1392,511
1.9239996189990052,1943,1365,505
1.9267042909996235,1937,1350,495
1.9294053789999452,1933,1303,467
1.9320950929995888,1994,1399,545
1.9347831819995918,2011,1406,535
1.9374724789995525,1995,1427,547
1.940161733999048,1970,1424,542
1.9428918640005577,1948,1363,496
1.9455824939996091,1936,1360,503
1.94827208300012,1931,1320,477
1.9509605469993403,1957,1364,511
1.953650927000126,2026,1407,542
1.9563414320000447,2016,1418,542
1.9590283130000898,1985,1455,567
1.9617160260004312,1962,1377,499
1.9644041979991016,1942,1362,507
1.9670904949998658,1935,1341,493
1.9697781249997206,1934,1317,483
1.9724677140002314,1990,1397,546
1.9751570530006575,2000,1398,532
1.9778451410002162,1982,1424,553
1.9805328549991827,1959,1403,528
1.9832185689992912,1943,1359,497
1.9859059489990614,1934,1357,499
1.988628578999851,1933,1312,478
1.991319418000785,1982,1378,528
1.994009673000619,2066,1419,542
1.996697803000643,2051,1437,547
1.9993856420005613,2005,1473,577
2.0020745219990204,1968,1382,501
2.0048053190002975,1947,1371,510
2.0075232409999444,1936,1346,491
2.0102160799997364,1933,1337,499
2.0129051269996125,2013,1406,545
2.015592548999848,2015,1410,539
2.0182802210001682,1991,1442,560
2.020967558999473,1968,1399,511
2.0237004819991853,1948,1363,496
2.026459194999916,1935,1358,502
2.029165825999371,1935,1306,470
2.0318544980000297,1990,1392,544
2.0345438360000117,2026,1408,541
2.0372319660000358,2005,1426,553
2.0399188049996155,1979,1438,555
2.0426083099991956,1954,1363,497
2.045297982000193,1939,1362,503
2.047986862999096,1936,1328,483
2.0506752010005584,1947,1351,508
2.053363872999398,2015,1405,539
2.0560508369999297,2011,1409,535
2.0587386339993827,1989,1443,560
2.061433056000169,1964,1389,511
2.06411964399922,1941,1360,501
2.0668119000001752,1929,1345,494
2.069506112999079,1930,1301,471
2.0722216600006504,2002,1399,544
2.0761550850002095,2032,1410,538
2.0788840479999635,2011,1439,555
2.0815770120007073,1968,1395,511
2.0842692259993782,1949,1371,506
2.086958522999339,1937,1351,496
2.0896504030006327,1927,1314,475
2.0923411999992823,2003,1406,547
2.095028163999814,2027,1409,535
2.0977173350001976,2005,1438,557
2.100409590999334,1977,1423,534
2.1030993040003523,1950,1366,496
2.1057865179991495,1938,1360,507
2.1084752320002735,1932,1322,479
2.111161445000107,1967,1371,528
2.1138497840001946,2017,1408,543
2.1165374140000495,2006,1415,539
2.119223169000179,1977,1446,561
2.1219112159997167,1955,1373,502
2.12460438800008,1942,1361,503
2.1273084770000423,1935,1342,493
2.1300082739999198,1927,1321,489
2.1326998629992886,2013,1403,543
2.135388785000032,2029,1409,538
2.138077498000712,2001,1441,560
2.1407660450004187,1971,1408,528
2.143452050000633,1950,1365,496
2.146141847000763,1936,1360,502
2.148830144000385,1933,1314,471
2.151517275000515,1990,1381,529
2.1542064049990586,2032,1411,542
2.1568943269994634,2002,1419,537
2.1595814989996143,1983,1456,563
2.1622697959992365,1956,1371,496
2.164960592999705,1938,1367,509
2.1676488899993274,1935,1338,486
2.1703396449993306,1934,1337,500
2.173029483999926,2011,1404,542
2.175716530999125,2015,1408,538
2.1784066609998263,1991,1440,560
2.181094416000633,1966,1392,511
2.1837813799993455,1943,1361,499
2.1864697599994543,1934,1355,496
2.189202514999124,1934,1307,469
2.1918920619991695,1987,1392,538
2.1945829430005688,2029,1409,542
2.1972721149995778,2010,1426,554
2.1999592449992633,1983,1442,552
2.2026493749999645,1957,1366,496
2.2053384219998406,1937,1365,505
2.2080248439997376,1931,1329,481
2.2107130580006924,1947,1351,511
2.2134002709990455,2015,1405,543
2.2160872770000424,2011,1409,535
2.2187776989994745,1987,1445,566
2.2214662459991814,1959,1385,506
2.224156459000369,1946,1362,501
2.226908922999428,1936,1348,496
2.2296109279996017,1931,1303,474
2.232302558999436,2007,1398,547
2.2349907719999464,2029,1409,538
2.2376805690000765,2003,1434,555
2.24036999099917,1974,1424,541
2.243058538000696,1952,1365,497
2.245746501999747,1939,1360,502
2.248435506999158,1933,1323,480
2.251119303999076,1965,1365,527
2.253912058999049,2035,1413,544
2.2566837729991676,2036,1425,550
2.2593844450002507,2003,1467,570
2.262082408999049,1971,1383,501
2.2647791229992436,1951,1373,510
2.267472669000199,1936,1344,494
2.2701669660000334,1936,1330,496
2.2728607219996775,2021,1408,546
2.2755516849993,2032,1414,539
2.278245441000763,2001,1444,561
2.280940570999519,1968,1407,527
2.2836310759994376,1946,1363,499
2.2863271229998645,1932,1357,500
2.2890207540003757,1922,1307,469
2.291712717000337,1985,1381,535
2.29441122299977,2026,1408,539
2.2971051029999217,2010,1424,548
2.2997951500001363,1978,1447,555
2.302490071999273,1956,1366,495
2.3051918689998274,1942,1363,498
2.3078834989992174,1932,1329,482
2.3105765039999824,1938,1344,499
2.313269300999309,2014,1404,543
2.3159595979996084,2014,1408,538
2.318649770000775,1987,1446,559
2.321343984000123,1965,1392,511
2.32404057200074,1946,1359,498
2.326752827999371,1937,1347,496
2.329456540999672,1931,1305,467
2.3321563379995496,2000,1397,542
2.334874509999281,2034,1410,543
2.3375628489993687,2014,1435,555
2.340276103999713,1982,1431,546
2.3429709850006475,1956,1369,498
2.3456673649998265,1939,1366,501
2.3483626619999995,1932,1328,479
2.3510527920007007,1956,1362,511
2.3537477139998373,2019,1405,545
2.356444970000666,2010,1413,541
2.359138724999866,1984,1452,570
2.361837688999003,1959,1379,506
2.364532235000297,1938,1363,505
2.3672369489995617,1933,1343,493
2.3699329959999886,1931,1317,483
2.3726268760001403,2005,1399,545
2.3753183400003763,2015,1407,534
2.3780120119990897,1999,1435,559
2.380708142000003,1968,1410,529
2.3833987729994988,1950,1362,501
2.38609102800001,1936,1359,501
2.388788616999591,1934,1314,476
2.391521454999747,1974,1375,528
2.3942293769996468,2017,1408,542
2.396924382999714,2003,1420,546
2.3996158049994847,1974,1454,563
2.4023091010003554,1955,1365,496
2.4050023569998302,1937,1360,503
2.4076922370004468,1935,1333,486
2.4103866170007677,1935,1331,498
2.4130797479992907,2021,1403,544
2.415770670000711,2026,1409,538
2.4184628420007357,2001,1445,560
2.421158514000126,1968,1397,523
2.423852144000193,1949,1366,499
2.4265569409999443,1936,1347,496
2.429257071000393,1935,1312,474
2.431965243000377,1987,1391,538
2.4346567899992806,2017,1408,529
2.437347586999749,2000,1425,548
2.440034301000196,1971,1438,549
2.442721473000347,1951,1360,496
2.445416020000266,1936,1361,503
2.4481105670001853,1933,1329,485
2.4508147390006343,1941,1350,510
2.4535132439996232,2032,1409,543
2.4562365410001803,2032,1419,542
2.4589292549990205,2000,1455,567
2.4616245929992147,1968,1393,511
2.464319765000255,1946,1367,501
2.46701172900066,1936,1349,496
2.469705941999564,1931,1307,476
2.47239923899906,2024,1406,551
2.475090285999613,2055,1420,542
2.477784167000209,2026,1446,560
2.4804789219997474,1989,1431,542
2.48317259400028,1961,1376,501
2.485870516000432,1937,1371,507
2.4885656049991667,1935,1326,480
2.4912576509996143,1971,1372,528
2.493953698000041,2047,1419,547
2.4966472449996218,2032,1427,544
2.4993391259995406,1997,1465,572
2.502033755999946,1967,1386,505
2.504728427998998,1945,1365,506
2.507419891999234,1936,1344,494
2.5101136890007183,1931,1322,488
2.5128099440007645,2011,1407,547
2.5155020740003238,2025,1410,537
2.5181982459998835,2001,1441,559
2.5208918349999294,1957,1399,511
2.5235840900004405,1947,1366,502
2.5262915120001708,1936,1360,503
2.528987641999265,1927,1310,467
2.5316808560000936,1975,1378,529
2.534373444999801,2023,1408,541
2.537064616999487,2009,1424,546
2.539757954999004,1982,1452,560
2.5424484190007206,1957,1369,496
2.5451433830003225,1945,1365,505
2.5478383879999456,1935,1334,484
2.550536393000584,1934,1335,498
2.5532311070001015,2000,1395,542
2.5559228620004433,2001,1408,531
2.558619158999136,1981,1435,558
2.5613129140001547,1958,1387,511
2.5640048360000947,1945,1360,499
2.566699425000479,1934,1350,496
2.5693926799995097,1933,1304,467
2.5720848519995343,2000,1392,542
2.5747791489993688,2032,1409,539
2.5774729040003876,2010,1431,550
2.5801669100001163,1982,1440,551
2.5828914150006312,1955,1371,496
2.5855893789994298,1939,1363,505
2.5882860090005124,1935,1328,479
2.5909775140007696,1947,1355,511
2.593702353000481,2029,1408,537
2.596409317000507,2024,1419,534
2.599117113999455,1997,1455,564
2.6018188269990787,1959,1390,509
2.604517207999379,1948,1369,503
2.6072082549999323,1935,1345,494
2.609904426999492,1934,1317,480
2.612602474000596,2007,1402,545
2.6152968120004516,2029,1410,531
2.617993234000096,2001,1437,555
2.620689155999571,1975,1421,530
2.6233823700003995,1951,1367,499
2.6260802500000864,1937,1360,503
2.6287747970000055,1931,1318,475
2.631468343999586,1967,1365,525
2.634168974000204,2017,1408,543
2.63686122999934,2003,1420,545
2.6395535270003165,1981,1456,570
2.6422453239993047,1957,1370,499
2.644943162000345,1938,1363,508
2.6476392929998838,1935,1337,493
2.6503352140007337,1935,1328,494
2.6530289700003777,2005,1398,545
2.655719599999429,2015,1399,533
2.658412897000744,1990,1437,560
2.6611071940005786,1967,1399,527
2.6637967829992704,1936,1360,499
2.6664919960003317,1936,1356,500
2.6691849599992565,1934,1309,473
2.671874798999852,1985,1387,535
2.674565719999009,2018,1408,541
2.6772606009999436,2000,1424,544
2.6799552729989955,1977,1445,555
2.682651110999359,1957,1366,493
2.6853450750004413,1939,1363,509
2.6880371639999794,1932,1329,485
2.690731336000681,1942,1341,503
2.693424674000198,2026,1406,541
2.6961154300006456,2022,1413,539
2.6988209350001853,1986,1449,561
2.701516649000041,1966,1391,511
2.7042391960003442,1946,1363,503
2.706935243000771,1933,1350,501
2.7115438349992473,1933,1305,468
2.7142452570005844,2010,1396,548
2.716943261999404,2001,1409,545
2.719631183999809,1980,1450,567
2.722330189000786,1957,1363,497
2.7250255279996054,1942,1361,503
2.7277174499995454,1935,1330,489
2.7304162889995496,1935,1328,494
2.7331126270000823,2037,1403,538
2.7357998410006985,2042,1420,539
2.7384945550002158,2019,1456,563
2.741190476999691,1984,1413,526
2.7438828569993348,1953,1375,508
2.746577862000777,1936,1360,506
2.7492722419992788,1934,1317,475
2.751964663999388,1995,1392,539
2.75465962799899,2037,1417,540
2.757354175000728,2020,1434,550
2.760045679999166,1985,1453,557
2.762738477000312,1957,1375,499
2.7654284830005054,1938,1370,507
2.768121113000234,1933,1331,486
2.7708410769992042,1938,1348,511
2.7735383740000543,2063,1418,547
2.776258420999511,2064,1426,547
2.778952593000213,2019,1465,571
2.7816492229994765,1982,1407,525
2.7843461869997554,1951,1378,510
2.787038357999336,1939,1360,499
2.7897319050007354,1932,1307,474
2.7924256610003795,2035,1412,555
2.7951602489993093,2074,1429,549
2.7978673800007527,2036,1456,562
2.8005630930001644,1999,1447,550
2.803258931999153,1967,1385,505
2.8059570210007223,1938,1375,510
2.8086511509991396,1934,1331,478
2.8113416559990583,1978,1377,528
2.8140340369991463,2070,1426,544
2.8167306249997637,2060,1435,551
2.819422005999513,2013,1475,576
2.8221181770004478,1971,1394,507
2.8248128079994785,1943,1379,509
2.8275046050002857,1936,1353,496
2.830196610000712,1934,1327,494
2.8328919899995526,2007,1398,541
2.8355863289998524,2031,1408,533
2.8382790840005327,2003,1447,560
2.840973922999183,1975,1418,531
2.8436668449994613,1952,1371,497
2.8463575589994434,1937,1361,507
2.849053896999976,1933,1318,477
2.8517457769994508,1984,1377,528
2.8544424079991586,2039,1417,543
2.857136704998993,2027,1431,552
2.85982741800035,1987,1465,570
2.862522089999402,1966,1375,503
2.865214596000442,1946,1371,508
2.867907933999959,1934,1341,491
2.8706033559992647,1933,1341,501
2.8732970700002625,2032,1408,546
2.8759881169989967,2032,1415,543
2.878682705000756,2000,1449,562
2.8813770439992368,1970,1403,526
2.884068424000361,1947,1367,506
2.8867619709999417,1935,1357,503
2.88945701800003,1931,1310,471
2.892148274000647,1999,1392,539
2.8949435289996472,2051,1419,544
2.897642034000455,2019,1437,554
2.900340789999973,1985,1446,554
2.9030348369997228,1962,1375,498
2.9057302999990497,1942,1367,507
2.9084252220000053,1936,1329,487
2.9111198939990572,1963,1360,511
2.9138171909999073,2057,1419,547
2.9165106969994667,2052,1426,546
2.919204202000401,2011,1467,573
2.921895207000489,1971,1399,511
2.9245917959997314,1950,1375,507
2.9272820930000307,1936,1353,497
2.9299758479992306,1927,1315,483
2.932674562000102,2001,1404,547
2.9353691500000423,2025,1410,537
2.9380623220004054,2000,1430,548
2.9407593279993307,1978,1423,534
2.9434537079996517,1955,1371,499
2.9461467969995283,1937,1363,505
2.94884280199949,1932,1323,478
2.951535390000572,1973,1373,527
2.954232686999603,2023,1409,539
2.956927776000157,2006,1420,543
2.959619990000647,1985,1456,569
2.9623160369992547,1959,1375,501
2.9650100839990046,1943,1370,505
2.967702714000552,1936,1341,487
2.9703965530006826,1935,1328,495
2.973090515999502,1991,1395,541
2.9757803970005625,1989,1397,531
2.9784735270004603,1971,1426,556
2.981175656999767,1948,1393,522
2.9838686210005108,1936,1356,497
2.9865623339992453,1926,1346,501
2.989256965000095,1925,1302,469
2.991947512000479,1970,1376,531
2.9946408920004615,2013,1397,532
2.9973637719995168,2001,1418,545
3.0000676109993947,1978,1446,557
3.002764032999039,1953,1366,495
3.0055005379999784,1940,1363,502
3.0082501689994388,1933,1333,482
3.0109455490000983,1945,1345,509
3.013642054000229,2043,1410,542
3.0163367679997464,2038,1419,541
3.0190270229995804,2002,1456,565
3.0217221950006206,1971,1395,511
3.0244162010003492,1947,1371,507
3.02711058100067,1938,1353,499
3.0298056690007797,1924,1306,468
3.032535091999307,2023,1407,546
3.0352604300005623,2055,1421,543
3.0379561859990645,2015,1446,560
3.0406556489997456,1984,1429,537
3.0433504459997494,1955,1379,504
3.0460419099999854,1938,1371,511
3.04873620699982,1934,1327,480
3.051426795000225,1962,1366,525
3.0541194260003977,2021,1408,543
3.05681493100019,2005,1419,542
3.0595088949994533,1984,1455,566
3.0622048170007474,1961,1379,502
3.064899155000603,1946,1366,506
3.067592035000416,1936,1344,495
3.0702882490004413,1931,1321,489
3.0729809629992815,2025,1408,545
3.0756735100003425,2033,1409,531
3.0783657230003882,2005,1441,559
3.0810634789995675,1977,1413,530
3.0837583169995924,1952,1365,498
3.0864502809999976,1939,1361,506
3.0891474109994306,1936,1319,475
3.0918414999996457,1995,1381,530
3.0945370890003687,2065,1424,543
3.0972323850000976,2046,1441,549
3.0999253909994877,2003,1472,565
3.10262543799945,1969,1385,501
3.105322650999369,1947,1378,509
3.1080164899994998,1936,1344,493
3.110710578999715,1936,1339,501
3.1134052090001205,2071,1423,547
3.1160977140007162,2078,1435,543
3.118791427999895,2027,1468,566
3.121486267000364,1987,1418,528
3.1242085640005826,1958,1386,509
3.126903652000692,1939,1366,507
3.1295980739996594,1935,1317,477
3.1322921209994092,1999,1397,544
3.1349848350000684,2021,1411,538
3.1376784650001355,2002,1430,549
3.1403714699990815,1979,1440,555
3.1430637260000367,1953,1361,496
3.1457565639993845,1936,1366,507
3.1485385699998005,1935,1329,481
3.15133595000043,1963,1360,511
3.1540877890001866,2063,1419,548
3.1567848779995984,2042,1427,544
3.1594765079989884,2007,1468,573
3.162168221999309,1974,1392,506
3.164858602000095,1949,1378,508
3.167547689999992,1935,1350,496
3.1702374039996357,1932,1324,487
3.1729279510000197,2034,1413,554
3.1756172479999805,2054,1422,540
3.178308377999201,2017,1452,563
3.1809988000004523,1983,1425,535
3.183688680999694,1953,1377,503
3.186379352999211,1940,1370,509
3.1890738160000183,1935,1327,477
3.191764029999831,1984,1381,526
3.1944549519994325,2041,1419,542
3.197145706999436,2030,1433,551
3.1998801289992116,1994,1468,576
3.202579008999237,1966,1381,506
3.2052791400001297,1943,1371,511
3.2079719779994775,1935,1341,495
3.2106635670006654,1934,1333,496
3.213352531000055,2023,1408,545
3.216041535999466,2025,1409,537
3.2187312909991306,2000,1441,560
3.2214242959998955,1968,1404,524
3.2241155930005334,1949,1365,506
3.2268079740006215,1930,1360,502
3.229502103999039,1931,1312,471
3.2322297760001675,2000,1392,541
3.2349189479991765,2054,1417,543
3.2376097029991797,2029,1435,555
3.2403000840004097,1989,1453,559
3.242990381000709,1961,1377,498
3.2456797609993373,1939,1363,499
3.2483677250002074,1935,1335,483
3.2510558550002315,1941,1354,510
3.2537447350005095,2019,1407,545
3.2564326569990953,2018,1415,542
3.2591211210001347,1987,1453,566
3.261811583999588,1958,1394,522
3.264500880999549,1946,1364,506
3.267190053000377,1935,1350,497
3.26988218400038,1932,1303,467
3.2725713969994104,2005,1398,544
3.275258861000111,2035,1411,538
3.277945407999141,2014,1438,555
3.280633955000667,1984,1435,545
3.2833215430000564,1959,1373,498
3.286010048999742,1939,1367,507
3.28869863699947,1935,1328,481
3.291386392000277,1964,1366,525
3.2940755229992646,2032,1411,544
3.296766277999268,2027,1422,545
3.299457282999356,1999,1458,573
3.302150289000565,1968,1392,510
3.3048416689998703,1942,1369,510
3.307529257999704,1936,1347,496
3.310219095999855,1931,1316,486
3.3129081429997314,2016,1407,547
3.3155962729997555,2035,1413,542
3.3182849869990605,2013,1443,557
3.320974742000544,1978,1424,534
3.3236633729993628,1952,1375,497
3.3263520450000215,1938,1364,506
3.3290400499990938,1935,1325,480
3.3317305969994777,1983,1373,527
3.3344216860004963,2045,1418,545
3.3371130239993363,2032,1429,550
3.3397991540005023,1987,1465,574
3.3424881600003573,1965,1381,502
3.345176040000297,1943,1375,509
3.347863879000215,1933,1338,486
3.3505520510007045,1933,1328,496
3.3532405980004114,2065,1420,549
3.355928185999801,2079,1433,546
3.358616940999127,2034,1466,569
3.3613047799990454,1990,1428,534
3.363993868999387,1957,1383,503
3.3666911239997717,1942,1371,507
3.3694113380006456,1935,1325,475
3.372104218000459,2001,1393,539
3.3747986819998914,2057,1423,546
3.377492228999472,2037,1443,557
3.3802126509999653,1997,1463,561
3.3829042809993553,1963,1385,500
3.385594661000141,1941,1376,511
3.3882945829991513,1933,1341,491
3.3909828800005926,1936,1348,502
3.393672885000342,2021,1408,546
3.39636680699914,2026,1413,542
3.399056479000137,1993,1451,561
3.401782610000737,1968,1392,525
3.4044756980001694,1946,1365,503
3.407165411999813,1937,1353,499
3.409855083998991,1931,1305,467
3.4125438390001364,2025,1405,546
3.4152305940006045,2065,1424,542
3.4179197659996134,2032,1446,555
3.420610229999511,1994,1447,550
3.4232978189993446,1962,1379,504
3.4259861989994533,1938,1374,511
3.4286775380005565,1930,1330,482
3.431371250999291,1962,1360,525
3.4340637149998656,2057,1419,545
3.436752761999742,2046,1427,545
3.439440141999512,2007,1468,570
3.442128688999219,1974,1401,511
3.444817568999497,1949,1377,511
3.4475050330001977,1934,1353,498
3.4501931220002007,1927,1307,478
3.452884377000373,2009,1405,542
3.4555703410005663,2042,1424,545
3.4582608040000196,2017,1450,559
3.460952351000742,1982,1430,539
3.4636418980007875,1957,1377,500
3.466331112000262,1940,1371,507
3.4690205339993554,1935,1327,478
3.471708122000564,1980,1376,528
3.474397336000038,2042,1418,543
3.477085425000041,2032,1429,544
3.4797725129992614,1997,1461,569
3.482461309999053,1965,1389,501
3.4851492319994577,1947,1374,507
3.4878365290005604,1935,1344,494
3.4905269509999926,1933,1326,486
3.493216831000609,2053,1415,545
3.4959062529997027,2064,1424,540
3.498596966999685,2026,1456,563
3.501285554999413,1986,1424,534
3.5039731020006,1954,1381,507
3.5066624829996726,1938,1367,502
3.5093506960001832,1931,1321,478
3.512038785000186,1986,1383,529
3.514726831999724,2032,1409,542
3.5174149209997267,2014,1428,550
3.5201028840001527,1984,1458,565
3.52279334800005,1956,1375,500
3.525485561000096,1942,1370,506
3.52817506700012,1935,1339,490
3.53090598900053,1935,1338,498
3.5335978690000047,2046,1412,545
3.5362867080002616,2055,1424,541
3.5389754209991224,2014,1457,561
3.541664092999781,1979,1409,511
3.5443536399998266,1955,1381,505
3.5470432709989836,1938,1361,504
3.5497316509990924,1931,1311,471
3.552422030999878,2022,1397,542
3.555111453000791,2078,1429,550
3.557801708000625,2035,1454,559
3.560491214000649,2000,1461,560
3.5631778440001654,1967,1387,507
3.5658681410004647,1941,1379,511
3.5685753550005757,1935,1341,489
3.571263526999246,1957,1360,511
3.5739554070005397,2067,1424,548
3.5766444119999505,2064,1431,543
3.57933229199989,2018,1471,576
3.582020838999597,1977,1408,511
3.5847122609993676,1950,1376,510
3.587404267000238,1936,1360,500
3.590096146999713,1930,1311,478
3.592785943999843,2019,1407,548
3.5954746570005227,2042,1419,539
3.59816512100042,2018,1443,558
3.6008530010003597,1981,1436,544
3.603539756999453,1957,1376,502
3.606263845000285,1939,1369,506
3.6090006419999554,1931,1329,481
3.6117281890001323,1975,1374,525
3.6144576530004997,2064,1422,549
3.617187699999704,2041,1431,547
3.619916788999035,2001,1471,572
3.6226480860004813,1969,1387,505
3.625378175000151,1950,1376,511
3.6281036799991853,1935,1346,495
3.630831352000314,1933,1333,495
3.633562773999074,2022,1407,545
3.63629427900014,2026,1411,534
3.6390204510007607,2000,1450,561
3.641746207000324,1970,1401,525
3.644472087000395,1951,1371,503
3.647196592999535,1938,1360,498
3.6499230150002404,1934,1311,469
3.6526539780006715,2027,1407,546
3.6553890249997494,2066,1420,537
3.6581215309997788,2035,1454,556
3.660849743999279,1990,1450,551
3.6635755829993286,1959,1383,503
3.6663024640001822,1936,1374,502
3.66906155200013,1927,1328,480
3.671830848999889,1966,1369,528
3.6745981050007686,2027,1408,542
3.677375318999111,2014,1423,549
3.680115740999099,1984,1459,574
3.682900788000552,1950,1373,501
3.685637085000053,1938,1364,507
3.6883721739995963,1932,1333,487
3.6911054289994354,1936,1337,499
3.6938392680003744,2031,1408,545
3.696576565000214,2032,1413,539
3.6993092369993974,2000,1453,569
3.7020462839991524,1968,1393,511
3.7047841639996477,1948,1362,501
3.7075172109998675,1938,1351,496
3.710253883000405,1935,1309,475
3.7129912639993563,2026,1409,547
3.7157301860006555,2057,1419,534
3.7184664830001566,2023,1449,559
3.7212051970000175,1985,1427,541
3.7239382440002373,1954,1376,503
3.7266758320001827,1937,1366,506
3.729412295999282,1933,1323,477
3.7321439679999457,1987,1382,529
3.734925889999431,2042,1420,542
3.7376657709992287,2028,1430,549
3.7404014429994277,1991,1456,561
3.7431343230000493,1959,1378,498
3.7458665369995288,1936,1372,510
3.748604209000405,1936,1333,480
3.7513392559994827,1950,1353,508
3.754073595000591,2070,1420,545
3.7568108920004306,2064,1429,542
3.7595434800005023,2019,1470,571
3.762281401999644,1978,1406,511
3.7650183660007315,1954,1382,504
3.7677518710006552,1938,1354,496
3.7704902940004104,1933,1321,483
3.7732293819990446,2038,1413,547
3.775962637999328,2061,1424,539
3.7787028099992312,2022,1456,561
3.781445481999981,1983,1424,532
3.78421294600048,1954,1378,507
3.786949908999304,1939,1368,503
3.7900351240004966,1935,1318,469
3.792781878999449,2014,1401,550
3.7955175930001133,2047,1417,543
3.7982560149994242,2023,1440,559
3.8009951450003427,1987,1436,545
3.8042697769997176,1956,1376,503
3.8069780740006536,1939,1369,510
3.809673870999177,1931,1313,470
3.81236704299954,1989,1387,539
3.815056673000072,2025,1409,541
3.8177467200002866,2005,1424,551
3.8204366829995706,1983,1450,560
3.823125771999912,1957,1372,496
3.8258150269994076,1936,1366,506
3.8285049080004683,1936,1332,490
3.831193579999308,1942,1344,506
3.8338828769992688,2022,1394,530
3.8365730490004353,2032,1415,541
3.839264345999254,2000,1453,562
3.841957808999723,1968,1397,511
3.8446492309994937,1950,1370,499
3.847337695000533,1936,1356,503
3.850028700000621,1933,1309,469
3.852716789000624,2019,1399,547
3.855410710999422,2056,1421,539
3.858105090999743,2027,1445,558
3.860797512999852,1981,1439,549
3.863488851000511,1962,1381,501
3.8661788570007047,1939,1373,511
3.8688692369996716,1935,1328,486
3.8715611589996115,1947,1360,511
3.8742527889990015,2027,1410,544
3.876944002999153,2020,1419,538
3.879628467000657,1993,1456,567
3.882327597000767,1964,1389,510
3.8850327269992704,1947,1367,501
3.8877217329991254,1935,1344,495
3.8904112380005245,1933,1312,480
3.8930997850002313,2011,1403,548
3.8957875819996843,2030,1410,536
3.89847500399992,2006,1438,557
3.9011630919994786,1975,1422,535
3.903851263999968,1947,1370,501
3.90654652000012,1937,1363,507
3.9092396500000177,1933,1323,480
3.9119285300002957,1974,1375,527
3.9146176600006584,2030,1409,543
3.917305581999244,2015,1422,544
3.919993962999797,1986,1458,574
3.922682550999525,1960,1378,501
3.925371682000332,1943,1367,507
3.9280596040007367,1935,1344,494
3.930748525999661,1935,1322,490
3.9334386560003622,2015,1403,545
3.9361262439997518,2025,1408,537
3.938843415999145,1999,1440,559
3.941534629999296,1967,1406,528
3.944247469000402,1946,1365,502
3.946937390999665,1937,1359,507
3.9496272710002813,1932,1313,475
3.953286736999871,2000,1383,535
3.9559852830007003,2047,1418,545
3.9586796639996464,2012,1441,560
3.9613702520000516,1979,1419,534
3.96405779899942,1952,1370,503
3.9667473459994653,1938,1362,503
3.9694394769994688,1935,1319,477
3.9721286490002967,1982,1377,528
3.9748467369990976,2035,1415,544
3.9775390760005394,2023,1427,551
3.9802504559993395,1991,1465,571
3.982940795000104,1962,1377,502
3.9856299250004668,1947,1371,506
3.9883190139989892,1934,1339,492
3.991006311000092,1933,1335,499
3.993693483000243,2004,1401,544
3.996383445999527,2011,1405,535
3.9990737850002915,1989,1442,560
4.001766164999935,1968,1394,511
4.004504836999331,1949,1363,503
4.007242425999721,1937,1358,499
4.009960555998987,1933,1311,467
4.012652727999011,2006,1394,531
4.015339233999839,2033,1411,540
4.018029614000625,2015,1433,553
4.020717453000543,1983,1440,550
4.023404290999679,1958,1371,498
4.026112004999959,1938,1368,509
4.0288240520003455,1923,1330,483
4.031522724000752,1953,1358,511
4.034223437000037,2037,1411,542
4.036920483998983,2032,1419,541
4.039615615000002,2000,1457,566
4.042321412000092,1968,1394,511
4.0450230419992295,1945,1371,506
4.047712506000607,1936,1345,496
4.050407135999194,1930,1313,479
4.053099890999874,2030,1408,545
4.055792229999497,2056,1421,542
4.058486859999903,2023,1449,561
4.06118157399942,1985,1429,543
4.0638752869999735,1942,1366,496
4.066571293000379,1943,1371,506
4.0692657149993465,1935,1327,479
4.071955802999582,1987,1375,529
4.074650017000749,2061,1422,545
4.077343814000415,2043,1433,546
4.0800360279990855,2001,1471,576
4.082728408000548,1967,1389,502
4.085423122000066,1943,1375,511
4.088115627000661,1936,1346,495
4.0908201319998625,1930,1328,494
4.093622471000344,2030,1409,549
4.096390975999384,2042,1421,543
4.09908752299998,2011,1454,563
4.101788612000746,1971,1408,527
4.104488076000052,1950,1374,503
4.107181830999252,1936,1360,501
4.109876210999573,1920,1299,463
4.112569633000021,1995,1392,541
4.115260971999305,2037,1415,544
4.117956226999013,2017,1435,553
4.120652106999842,1985,1450,553
4.1233384879997175,1957,1373,498
4.126032201000271,1942,1371,507
4.128732290000698,1935,1330,486
4.13142746199992,1941,1350,511
4.134123216999797,2023,1408,543
4.136819430999822,2019,1413,541
4.139511602999846,1987,1448,564
4.1422060250006325,1964,1393,511
4.144901821999156,1947,1365,502
4.147594869000386,1933,1349,501
4.150286665999374,1932,1300,475
4.152979628999674,2023,1405,545
4.155673260000185,2052,1418,539
4.158363557000484,2023,1442,558
4.1610813539991796,1985,1437,546
4.163779151000199,1955,1376,503
4.1664734890000545,1940,1371,508
4.16916941099953,1931,1328,481
4.171860250000464,1967,1373,528
4.174555047000467,2039,1415,542
4.177252093999414,2032,1424,544
4.179943598999671,1995,1462,572
4.182636771000034,1966,1386,502
4.185332068000207,1943,1371,509
4.188023614999111,1934,1346,496
4.190719037000235,1927,1319,490
4.19341575100043,1998,1399,544
4.19610929800001,2005,1404,537
4.198816010999508,1984,1429,555
4.201513017000252,1963,1404,527
4.204238313999667,1945,1360,497
4.20693148600003,1936,1355,503
4.209626783000203,1930,1310,475
4.212321204999171,1995,1377,532
4.215012459999343,2045,1412,542
4.217707215000701,2027,1426,551
4.2204009699999006,1994,1458,563
4.2230953090002,1965,1379,499
4.225790856000458,1938,1373,507
4.228486153000631,1936,1339,491
4.231178325000656,1934,1339,499
4.233872789000088,2060,1414,547
4.236570502000177,2064,1426,541
4.23926071599999,2021,1459,566
4.241961096000523,1984,1409,525
4.24465389299985,1953,1379,502
4.2473413570005505,1937,1360,500
4.250030986999263,1930,1313,473
4.2527251169995,1989,1392,542
4.255419331000667,2013,1408,538
4.2581116700002895,2000,1427,550
4.2608075919997646,1969,1438,548
4.263500138999007,1951,1365,497
4.266194768999412,1939,1361,510
4.268891358000474,1932,1328,481
4.271585238000625,1953,1355,509
4.274279076000312,2019,1404,542
4.276972956999089,2007,1410,539
4.279666669999642,1986,1451,563
4.282361759000196,1963,1391,511
4.285054555999523,1946,1363,506
4.287747185999251,1934,1345,497
4.290472692000549,1935,1309,475
4.293169279999347,2003,1399,544
4.295861619000789,2023,1406,537
4.2985568740004965,2000,1431,558
4.301249587999337,1975,1423,538
4.303943384999002,1955,1370,500
4.306639972999619,1939,1365,502
4.309336186999644,1939,1326,480
4.312027484000282,1974,1374,525
4.3147216140005185,2029,1407,542
4.317416202999084,2014,1419,543
4.3201097500004835,1978,1455,564
4.322811964000721,1947,1375,499
4.325505218999751,1934,1361,505
4.328228599000795,1930,1338,488
4.330923895999149,1925,1322,486
4.333619734999957,2000,1394,542
4.336313948000679,2005,1399,531
4.3390046620006615,1985,1433,559
4.341696916999354,1966,1397,522
4.344389547999526,1946,1362,502
4.347082095000587,1936,1358,506
4.349772641999152,1932,1313,472
4.352462271999684,2001,1387,531
4.355153319000237,2061,1418,546
4.357844991000093,2034,1439,551
4.36053832899961,2000,1462,564
4.363229626000248,1968,1381,500
4.365923381999892,1947,1375,509
4.368620844999896,1936,1343,491
4.371314059000724,1938,1343,501
4.374010023000665,2053,1416,546
4.376704485999653,2053,1422,545
4.379396866999741,2012,1459,569
4.382089954999174,1977,1407,528
4.384787335999135,1943,1376,508
4.3874815910003235,1939,1360,498
4.390177762999883,1936,1312,471
4.39287268499902,1984,1389,535
4.395564522999848,2021,1408,541
4.398258111999894,2000,1427,555
4.400952908999898,1972,1434,551
4.403643206000197,1951,1367,496
4.406335420000687,1942,1366,507
4.409028174999548,1936,1328,482
4.4117176799991284,1963,1359,522
4.414412476999132,2064,1417,549
4.417108981999263,2058,1427,546
4.419800653999118,2006,1468,576
4.422493701000349,1973,1399,511
4.425186790000225,1951,1375,511
4.427877045000059,1936,1354,496
4.430571050999788,1931,1314,482
4.433268930999475,2023,1409,548
4.43596060299933,2046,1422,541
4.438656357999207,2016,1447,558
4.441348529999232,1982,1427,542
4.44403903499915,1956,1376,506
4.446732165999492,1939,1366,507
4.449426379000215,1935,1328,479
4.452113801000451,1985,1377,528
4.454816139999821,2044,1421,543
4.457510229000036,2033,1430,547
4.460233941999832,1998,1466,575
4.462928697999814,1968,1382,499
4.465622661000452,1944,1373,511
4.468318082999758,1936,1345,496
4.471009380000396,1931,1328,494
4.473702176999723,2033,1407,539
4.476395265999599,2052,1420,538
4.479088771000534,2014,1452,561
4.481784026000241,1973,1415,527
4.484478947999378,1952,1372,501
4.487168620000375,1936,1362,500
4.4898612090000825,1930,1317,471
4.492553338999642,1984,1383,533
4.495243678000406,2018,1408,538
4.497936641999331,2001,1424,544
4.500631397000689,1973,1450,551
4.503322901999127,1955,1366,496
4.506015323999236,1939,1365,506
4.5087096209990705,1934,1328,484
4.511405209999793,1935,1340,501
4.514101048000157,2009,1399,542
4.516795719999209,2007,1406,533
4.51948501699917,1986,1439,560
4.5221788979997655,1966,1390,511
4.524873278000086,1934,1353,496
4.5275644499997725,1936,1349,497
4.530258787999628,1933,1303,465
4.532952169000055,2007,1397,543
4.53564275700046,2044,1413,532
4.5383367630001885,2017,1437,551
4.541030309999769,1984,1441,553
4.54372710700045,1957,1372,501
4.5464246119991,1937,1366,510
4.549120200999823,1932,1328,480
4.551806872999805,1946,1358,511
4.554538336000405,2023,1406,543
4.557259466999312,2017,1415,539
4.559955347000141,1990,1454,565
4.562648851999256,1963,1386,501
4.565342190999218,1941,1367,504
4.568031446000532,1936,1345,495
4.570722034999562,1935,1313,485
4.573412706999079,1999,1398,543
4.5761033369999495,2014,1407,532
4.578796800999044,1984,1425,549
4.581490013999428,1968,1413,532
4.584228560999691,1947,1363,500
4.586923024999123,1936,1360,509
4.589615529999719,1933,1317,476
4.592306868999003,1964,1369,525
4.594995248999112,2003,1399,535
4.5977044629999,1996,1413,538
4.600410134999038,1971,1451,563
4.603106557000501,1952,1365,496
4.605800895000357,1935,1360,506
4.608490525999514,1933,1333,487
4.6111787390000245,1932,1327,494
4.613867869999012,2012,1395,543
4.616557207998994,2016,1404,535
4.619245588999547,1994,1441,561
4.621935634999318,1968,1399,511
4.624624265999955,1947,1363,497
4.627311312999154,1936,1356,501
4.630000110000765,1935,1312,471
4.632688698000493,1984,1386,537
4.635390579000159,2013,1406,538
4.63809133399991,2000,1424,546
4.640787255999385,1968,1441,555
4.643479427999409,1954,1363,493
4.646169932999328,1937,1363,501
4.648860605000664,1936,1330,479
4.651549402000455,1937,1344,506
4.654250616000354,2018,1403,539
4.656947329000104,2020,1408,535
4.659636334999959,1995,1449,559
4.662324798000554,1968,1393,511
4.665015636999669,1946,1365,501
4.66770414200073,1936,1346,496
4.670394230999591,1933,1303,468
4.6730879440001445,2010,1396,546
4.675779574999979,2036,1413,537
4.678468538000743,2016,1437,554
4.681159126999773,1984,1441,547
4.683847173999311,1957,1374,503
4.686536762999822,1937,1369,507
4.6892256009996345,1934,1328,482
4.691912772999785,1968,1361,523
4.694602319999831,2057,1419,545
4.6972909920004895,2044,1425,547
4.699979289000112,2004,1464,567
4.7026685860000725,1969,1395,507
4.705359174999103,1948,1376,507
4.708048054999381,1936,1351,496
4.7107371849997435,1927,1315,482
4.713426274000085,2021,1409,551
4.716115486999115,2038,1418,538
4.718806533999668,2014,1447,559
4.721499789999143,1980,1425,537
4.724217044999023,1955,1371,503
4.72690884199983,1941,1366,507
4.729599930999029,1934,1325,477
4.732288852999773,1975,1375,528
4.734991232999164,2030,1411,540
4.737692529999549,2014,1424,543
4.74038478500006,1986,1458,565
4.743075332000444,1963,1377,498
4.745767336999052,1940,1369,507
4.748467675999564,1933,1343,493
4.751158389999546,1927,1328,496
4.753847019999739,1990,1394,542
4.756538358999023,1999,1397,534
4.75922823899964,1984,1428,555
4.761916494000616,1965,1395,511
4.764606875000027,1946,1360,496
4.767298130000199,1935,1353,500
4.769990467999378,1931,1309,471
4.772680599000523,1982,1379,534
4.775370728999405,2015,1405,539
4.778060609000022,2000,1421,548
4.780750822999835,1973,1443,560
4.783438037000451,1949,1363,496
4.78612987499946,1937,1363,507
4.788819588999104,1932,1333,486
4.791508510999847,1940,1339,502
4.794198098999914,2024,1404,541
4.796888105000107,2021,1411,535
4.799580568000238,1993,1445,561
4.802273740000601,1968,1395,522
4.80496320400016,1948,1366,505
4.807653583999127,1936,1357,498
4.810343880999426,1934,1307,467
4.813033427999471,1999,1393,544
4.815724267000405,2029,1407,535
4.818416313999478,2002,1430,550
4.821106068999143,1978,1438,548
4.823794366000584,1949,1370,497
4.8264831630003755,1936,1365,503
4.829173168000125,1932,1328,482
4.831863424000403,1959,1358,511
4.834568971000408,2038,1412,541
4.837268225999651,2032,1423,539
4.839968648000649,2000,1458,563
4.842661070000759,1966,1392,506
4.845355449999261,1950,1372,499
4.848048371999539,1935,1349,495
4.850742418999289,1930,1310,480
4.853430674000265,2004,1402,545
4.856117637998977,2022,1408,535
4.858810309999171,2000,1435,554
4.8614999820001685,1975,1422,531
4.864221903999351,1951,1367,499
4.866917117999037,1936,1361,507
4.86960708100014,1933,1323,477
4.8722996699998475,1969,1370,525
4.874987883000358,2021,1405,539
4.877676763999261,2013,1419,544
4.880364561000533,1984,1456,569
4.883052065999436,1956,1378,498
4.8857417380004335,1943,1365,507
4.888431035000394,1935,1344,495
4.891119289999551,1931,1323,493
4.893807919999745,2021,1406,541
4.896498676000192,2030,1408,536
4.899189431000195,2002,1443,560
4.9018784780000715,1970,1409,530
4.90456898299999,1952,1369,500
4.907257279999612,1937,1361,501
4.909945576999235,1933,1317,475
4.912633956999343,2000,1383,528
4.915321004000361,2063,1423,547
4.918009134999011,2035,1439,553
4.920699181999225,1997,1466,563
4.923386894999567,1968,1382,497
4.926077067000733,1946,1376,506
4.928766031000123,1935,1343,490
4.93145349400038,1935,1343,502
4.934142583000721,2031,1411,546
4.936845672000345,2032,1417,539
4.939545802000794,2005,1451,563
4.942247891000079,1973,1402,525
4.944941187999575,1953,1371,505
4.947629151000001,1941,1360,497
4.9503205319997505,1936,1313,477
4.953009078999457,2030,1405,547
4.955697751000116,2081,1426,545
4.958387796999887,2045,1454,557
4.961076969000715,1998,1462,558
4.963765099999364,1963,1383,503
4.966454937999515,1936,1376,511
4.969145151999328,1922,1333,485
4.97183265700005,1936,1355,511
4.974522995998996,2029,1408,545
4.977212584999506,2027,1414,542
4.979901714999869,1995,1456,566
4.982591762000084,1968,1394,511
4.985281142000531,1946,1371,505
4.9879694810006185,1935,1349,496
4.99065931900077,1932,1305,470
4.993351115999758,2035,1408,545
4.996042996999677,2064,1424,541
4.998734209999384,2032,1450,559
5.001425423999535,1995,1441,550
5.00410880399977,1959,1381,503
5.00711135200072,1939,1374,509
5.00987639899904,1926,1319,476
5.012595153999428,2005,1389,528
5.015286825999283,2095,1433,555
5.0179776229997515,2065,1454,559
5.020667003000199,2015,1486,571
5.023356842000794,1972,1393,506
5.026057180999487,1951,1385,511
5.028751060999639,1935,1346,495
5.0314403579996,1934,1341,501
5.034129321998989,2016,1409,546
5.036833951999142,2025,1412,541
5.039532873999633,1999,1445,562
5.042227253999954,1968,1402,524
5.044918633999259,1945,1369,500
5.04761005599903,1936,1357,499
5.050318853000135,1933,1310,470
5.053020817000288,2000,1392,542
5.055712405999657,2033,1408,541
5.058405911000591,2013,1431,550
5.061095499999283,1984,1445,551
5.063782338000237,1947,1371,502
5.066472717999204,1938,1365,507
5.069163056999969,1934,1331,487
5.071851687000162,1950,1354,509
5.074541067999235,2037,1410,542
5.0772303649991954,2032,1420,542
5.07991932799996,2000,1456,565
5.082608167000217,1969,1397,511
5.085296713999924,1946,1372,505
5.087987011000223,1934,1353,496
5.090678140999444,1931,1305,469
5.09336931299913,2022,1407,549
5.096057942999323,2054,1419,542
5.098747239999284,2027,1446,558
5.101435786998991,1987,1440,544
5.1041236679993744,1955,1378,501
5.106848715000524,1940,1373,507
5.109539470000527,1935,1328,478
5.112264059000154,1967,1371,525
5.1149541060003685,2030,1409,541
5.117644485999335,2015,1421,537
5.120336698999381,1986,1456,563
5.1230260800002725,1961,1381,502
5.125714293000783,1943,1365,506
5.128402964999623,1936,1346,496
5.131089929000154,1931,1321,485
5.133780017999015,2000,1399,545
5.136488689999169,2017,1406,535
5.139188653000019,1995,1437,555
5.141879450000488,1968,1410,528
5.144568289000745,1949,1366,498
5.147255460999077,1937,1360,501
5.149944132999735,1934,1316,473
5.152631846000077,1984,1377,523
5.155318934999741,2038,1415,545
5.158006023999405,2023,1429,550
5.16069607099962,1989,1460,570
5.163383908999094,1961,1377,501
5.166071956000451,1942,1371,510
5.168762670000433,1934,1340,491
5.171450174999336,1936,1333,496
5.174137513999085,2036,1409,545
5.176827769000738,2042,1419,539
5.17951414900017,2011,1451,562
5.182203405000109,1979,1408,525
5.184896327000388,1951,1373,501
5.18758645699927,1938,1360,501
5.1902784619996964,1932,1315,471
5.19296871699953,2027,1399,538
5.195657805999872,2071,1426,543
5.198346519999177,2041,1445,555
5.20103544199992,1999,1461,560
5.203726239000389,1967,1383,502
5.206433826999273,1942,1375,509
5.209128458000123,1936,1339,489
5.21181883799909,1939,1355,507
5.2145096759995795,2034,1413,545
5.2172038900007465,2033,1422,539
5.219891729000665,2002,1456,564
5.222582025999145,1970,1399,511
5.225270905999423,1947,1373,505
5.227958077999574,1935,1356,499
5.230646957999852,1934,1307,471
5.233336338000299,2015,1405,548
5.236029093999605,2051,1418,543
5.238735016000646,2021,1439,555
5.241435021000143,1985,1440,551
5.244126776000485,1955,1376,501
5.246865490000346,1939,1371,507
5.249560911999652,1934,1328,481
5.25228025099932,1982,1372,528
5.254972548000296,2094,1427,550
5.257662760999665,2074,1445,549
5.2603544749999855,2022,1479,576
5.263043229999312,1983,1402,510
5.265733569000076,1952,1383,510
5.2684250740003336,1937,1357,498
5.271112828999321,1930,1328,487
5.273802460000297,2042,1419,554
5.276492548000533,2066,1425,541
5.27918217899969,2027,1456,565
5.281872850999207,1974,1418,528
5.284562938999443,1959,1381,508
5.287251069999911,1939,1370,509
5.289941241999259,1934,1327,479
5.292631537999114,1975,1379,526
5.2953202099997725,2019,1411,539
5.298008465999374,2006,1424,544
5.3006978039993555,1983,1453,567
5.303386685000078,1959,1374,497
5.306078023000737,1942,1367,506
5.308767403999809,1936,1337,493
5.311456367000574,1933,1329,499
5.314146038999752,2016,1403,545
5.3168343779998395,2019,1408,534
5.31952338299925,1991,1442,561
5.322213929999634,1968,1402,525
5.324906227000611,1949,1365,502
5.327598273999683,1936,1359,502
5.330290445999708,1935,1312,475
5.332981493000261,1986,1385,533
5.335668248000729,2032,1410,539
5.338357212000119,2014,1429,547
5.341048091999255,1984,1453,559
5.343739513999026,1961,1373,497
5.346432103000552,1937,1369,507
5.349122150000767,1934,1335,485
5.351814280000326,1935,1345,507
5.354509701999632,2032,1407,546
5.357200291000481,2034,1417,541
5.3598887539992575,2003,1456,566
5.362579884000297,1968,1399,523
5.365269681000427,1951,1373,507
5.367958102999182,1936,1355,496
5.370649774999038,1935,1306,466
5.373340864000056,1998,1395,542
5.37603111899989,2017,1408,535
5.378722707999259,2000,1424,551
5.381413338000129,1971,1432,541
5.384102134999921,1952,1366,497
5.386793599000157,1936,1363,508
5.389487021000605,1936,1327,482
5.392202609000378,1961,1360,511
5.394894531000318,2037,1406,530
5.397585703000004,2043,1425,544
5.4002756669997325,2007,1464,571
5.402965006000159,1983,1394,511
5.40565484400031,1947,1375,502
5.408346182999594,1935,1351,494
5.412906358000328,1934,1315,486
5.41560082199976,2046,1407,550
5.418294951999997,2032,1426,551
5.420984541000507,1995,1456,560
5.423674005000066,1962,1373,497
5.426363885000683,1943,1370,507
5.429056724000475,1934,1338,490
5.431746229000055,1937,1341,502
5.43443760899936,2080,1423,547
5.437128448000294,2081,1434,546
5.439815535999514,2030,1470,567
5.4425062499994965,1984,1414,527
5.4451949640006205,1954,1383,510
5.447884385999714,1936,1363,502
5.450573849000648,1932,1316,470
5.4532701459993405,2019,1406,547
5.455965484999979,2065,1425,548
5.458655906999411,2032,1449,555
5.461346828999012,1995,1455,558
5.464035291999608,1961,1379,506
5.466723047999039,1943,1375,511
5.4694142200005444,1932,1335,487
5.472105225000632,1954,1360,511
5.4747970219996205,2047,1418,547
5.477487943999222,2045,1427,545
5.480214073999377,2009,1463,571
5.482908162999593,1958,1391,501
5.485598750999998,1951,1376,506
5.488288464999641,1936,1351,496
5.490976803999729,1929,1313,477
5.493665059000705,2026,1408,547
5.496353897999143,2055,1421,538
5.499042819999886,2020,1441,551
5.501733532999424,1986,1434,543
5.50442370500059,1957,1379,500
5.507113876999938,1941,1372,507
5.509805091000089,1929,1328,479
5.512494553999204,1979,1378,530
5.515178225999989,2079,1425,549
5.517871190000733,2065,1442,548
5.520566862000123,2022,1477,576
5.523260158999619,1976,1393,509
5.525952206000511,1950,1381,508
5.528644960999372,1936,1354,496
5.5313333829999465,1931,1328,491
5.5340231800000765,2019,1410,546
5.536714894000397,2032,1411,540
5.539405940999131,2002,1443,560
5.5420959460007,1973,1417,529
5.54478786800064,1943,1369,499
5.547474581999268,1936,1361,503
5.550163754000096,1935,1318,475
5.552854383999147,2009,1386,531
5.555543680999108,2078,1426,545
5.558231560999047,2059,1445,555
5.560922025000764,2009,1478,571
5.5636106969996035,1969,1392,505
5.566298284998993,1946,1380,511
5.568989707000583,1933,1347,492
5.57167933799974,1930,1339,496
5.574370592999912,2057,1417,545
5.5770620980001695,2066,1425,543
5.579750228000194,2025,1461,564
5.582440025000324,1984,1415,526
5.585130072000538,1953,1380,506
5.587819160999061,1936,1365,499
5.5905096659989795,1931,1315,471
5.593197879999934,2017,1403,539
5.595885926999472,2064,1424,542
5.598576223999771,2037,1445,556
5.601268229000198,1993,1453,558
5.603959400999884,1965,1383,501
5.606648822998977,1938,1377,511
5.609376287000487,1934,1339,487
5.612068750000617,1943,1355,511
5.614760672000557,2075,1424,550
5.617451886000708,2077,1438,548
5.620142974999908,2029,1472,573
5.622862062999047,1981,1414,523
5.625554484999157,1955,1379,507
5.628268615999332,1937,1360,498
5.630960913000308,1933,1312,478
5.633652209000502,2033,1413,550
5.636343173000569,2066,1426,545
5.639033928000572,2032,1455,558
5.641724766999687,1994,1441,543
5.644415314000071,1967,1383,506
5.647105985999588,1946,1378,511
5.649798033000479,1936,1330,482
5.652489205000165,1979,1376,528
5.655178209999576,2068,1424,548
5.657869673999812,2037,1424,538
5.660559220999858,2007,1472,575
5.663251059000686,1968,1392,507
5.665944315000161,1939,1376,511
5.66863461200046,1925,1345,490
5.671323366999786,1921,1323,488
5.674014496999007,2021,1408,547
5.676728710999669,2038,1410,538
5.679440758000055,2010,1441,561
5.6821755549990485,1980,1417,536
5.684911893999015,1953,1372,506
5.6876348160003545,1936,1360,509
5.690336779000063,1933,1316,475
5.693031325999982,2000,1386,539
5.695722582000599,2063,1419,545
5.698415128999841,2039,1439,553
5.701106426000479,2000,1465,560
5.703795221999826,1965,1375,494
5.706484685999385,1946,1379,503
5.7091771499999595,1936,1344,487
5.71186636299899,1923,1334,495
5.714555784999902,2052,1415,549
5.71724920700035,2054,1424,542
5.719939628999782,2015,1458,565
5.72263009299968,1977,1409,511
5.725317014999746,1953,1377,503
5.728006228000595,1936,1360,500
5.730695442000069,1933,1309,469
5.7333860309991,2064,1414,547
5.736075118998997,2118,1445,547
5.738766332999148,2077,1468,561
5.741455921999659,2019,1473,561
5.744143551999514,1971,1395,507
5.7468858909996925,1947,1389,511
5.749579937999442,1936,1342,487
5.75227227600044,1954,1364,511
5.754965239999365,2041,1419,542
5.7576560779998545,2032,1425,535
5.760344374999477,2000,1459,566
5.763029964000452,1968,1397,511
5.765719761000582,1947,1371,501
5.768407100000331,1937,1354,496
5.7710963129993615,1931,1312,479
5.773786609999661,2018,1408,547
5.776477616000193,2044,1418,541
5.779167620999942,2016,1443,560
5.781860667999354,1984,1430,542
5.7845530479989975,1956,1375,497
5.78724246999991,1938,1365,506
5.7899331000007805,1933,1327,478
5.792623731000276,1968,1371,511
5.795310653000342,2026,1408,538
5.797999865999373,2014,1419,539
5.800688954999714,1987,1455,565
5.803377834999992,1963,1381,499
5.806067006999001,1939,1365,497
5.808761636999407,1935,1343,490
5.811486558999604,1933,1323,487
5.814181648000158,2005,1402,542
5.816873612000563,2014,1407,533
5.819561116999466,1994,1437,556
5.8222507890004636,1968,1407,528
5.825781379000546,1946,1363,496
5.828478842999175,1936,1360,499
5.831169765000595,1930,1306,478
5.833861437000451,2018,1401,547
5.8365542749997985,2035,1412,534
5.839245531000415,2013,1439,555
5.841934952999509,1984,1425,536
5.844626124999195,1953,1371,495
5.847313796999515,1936,1365,509
5.850003301999095,1935,1325,477
5.852692724000008,1959,1364,525
5.855381478999334,2000,1399,537
5.858072859000458,1996,1411,536
5.8607586979996995,1971,1449,566
5.863443828000527,1954,1372,496
5.866131000000678,1937,1361,501
5.8688190470002155,1933,1338,487
5.871506011000747,1932,1317,486
5.8741957239999465,1995,1395,541
5.876885354999104,2000,1398,535
5.879573359999995,1982,1427,554
5.882262114999321,1963,1399,523
5.884954786999515,1942,1360,497
5.8876595010005985,1936,1355,496
5.89035659000001,1932,1313,471
5.8930458029990405,1990,1378,528
5.895733932999065,2047,1413,541
5.898421854999469,2031,1431,547
5.901109901999007,1996,1466,563
5.903796324000723,1962,1380,497
5.90648595499988,1943,1373,505
5.909177293000539,1936,1340,489
5.9118665900005,1933,1338,499
5.914556178999192,2026,1408,545
5.917244600999766,2031,1414,539
5.919931648000784,2000,1449,560
5.922620569999708,1968,1401,511
5.925309700000071,1949,1369,500
5.927997329999926,1937,1359,501
5.930686043999231,1931,1311,470
5.933374091000587,2011,1397,541
5.936060471000019,2055,1421,539
5.938750101000551,2025,1439,552
5.941438148000088,1991,1454,555
5.944124403999012,1963,1377,498
5.94685199199921,1939,1373,508
5.9495427059991925,1931,1335,483
5.952256419999685,1943,1354,510
5.954945716999646,2037,1411,547
5.957652347000476,2035,1421,537
5.960340977000669,2000,1456,563
5.963026732999424,1970,1398,511
5.965712613000505,1948,1370,500
5.968399035000402,1936,1351,496
5.971087539999644,1932,1303,471
5.973776212000303,2016,1407,548
5.9764652169997134,2059,1420,542
5.979151597999589,2032,1446,560
5.9818386860006285,1987,1439,545
5.984524899999087,1962,1377,499
5.987212030000592,1941,1371,507
5.989899534999495,1935,1328,479
5.992586082000344,1967,1367,525
5.995271253999817,2038,1414,544
5.99795905099927,2030,1424,542
6.000651931999528,1994,1459,566
6.003337894999277,1964,1386,506
6.006029651000063,1946,1369,506
6.008715821999431,1933,1344,496
6.011456702999567,1932,1318,483
6.014179207999405,2000,1403,545
6.016873380000106,2003,1395,529
6.019563677000406,1993,1435,560
6.022252431999732,1967,1409,531
6.0249432290002005,1952,1366,501
6.027631610000753,1936,1353,497
6.030320739999297,1933,1317,474
6.033009037000738,1993,1378,528
6.035699583999303,2053,1415,538
6.03839054799937,2034,1433,550
6.0410781360005785,1999,1468,574
6.043765308000729,1965,1380,501
6.0464546469993365,1943,1372,507
6.049142818999826,1935,1344,491
6.0518288660005055,1930,1329,496
6.054516913000043,2026,1405,544
6.0572080010006175,2032,1413,534
6.059926423000434,2003,1447,562
6.062639719999424,1969,1407,511
6.0653266009994695,1949,1371,503
6.068015147000551,1938,1360,501
6.07070540299901,1935,1309,467
6.073398533000727,1989,1391,538
6.076086122000561,2031,1410,541
6.078776501999528,2003,1429,548
6.081464049000715,1981,1445,555
6.084152012999766,1957,1371,496
6.086890267999479,1940,1366,501
6.089582189999419,1934,1330,483
6.0922743619994435,1950,1351,506
6.094961700000567,2070,1423,543
6.0976513309997245,2071,1433,541
6.1003399189994525,2030,1472,567
6.103029424999477,1981,1411,511
6.105719762999797,1956,1379,507
6.108409559999927,1937,1360,501
6.1110970659992745,1931,1311,469
6.113787362999574,1995,1395,541
6.116475826000169,2020,1405,530
6.119163498000489,2000,1429,549
6.121852087000661,1971,1424,540
6.124539884000114,1948,1363,495
6.127227513999969,1936,1361,500
6.129917018999549,1932,1326,475
6.1326080660001026,1958,1360,511
6.135298322000381,2035,1419,543
6.137987160000193,2031,1424,543
6.140675040000133,1997,1462,575
6.143362254000749,1967,1391,508
6.1460597589993995,1950,1370,505
6.148747015000481,1936,1349,495
6.1514335199990455,1932,1318,485
6.1541223999993235,2022,1408,549
6.156811114000448,2035,1418,539
6.15950420199988,2011,1444,560
6.162194541000645,1978,1423,534
6.164881587999844,1953,1372,503
6.167567926999254,1937,1366,503
6.1702553069990245,1933,1325,479
6.172947311999451,1975,1377,527
6.175634442999581,2031,1412,538
6.178325323000536,2018,1424,545
6.18101528599982,1989,1461,570
6.183701457999632,1961,1376,497
6.18638950499917,1941,1367,507
6.189079343999765,1936,1341,491
6.191767390999303,1925,1328,493
6.1944569799998135,2034,1406,544
6.1971506099998805,2046,1417,535
6.199843074000455,2015,1451,560
6.202533786999993,1982,1414,528
6.205223417000525,1955,1375,502
6.207910506000189,1941,1363,503
6.2105970949996845,1932,1319,476
6.213779100999091,1972,1381,534
6.216516772999967,2013,1403,535
6.219246361999467,1999,1427,550
6.221977449999031,1969,1425,539
6.224707205999948,1950,1365,496
6.227436585999385,1937,1362,503
6.230169217000366,1935,1322,479
6.232897846999549,1973,1370,523
6.235625060999155,2039,1410,541
6.238353233000453,2025,1424,544
6.2410914459997,1994,1463,566
6.243819035000342,1965,1380,499
6.246548540000731,1942,1370,506
6.249277921000612,1936,1340,489
6.25200234300064,1933,1331,496
6.254730889999337,2013,1401,539
6.257459894999556,2018,1409,534
6.260247816999254,1993,1445,561
6.26298019800015,1955,1386,506
6.265709703000539,1946,1363,501
6.268439666999257,1936,1351,496
6.271164796999074,1935,1302,464
6.273893928000689,2003,1397,540
6.2766220579997025,2030,1409,535
6.279347313000471,2006,1436,551
6.282075735000035,1978,1428,539
6.284803241000191,1951,1370,498
6.287532120999458,1936,1364,502
6.290263917999255,1934,1325,479
6.292994465000447,1980,1375,526
6.2957213039990165,2059,1417,542
6.298450643000251,2037,1431,548
6.301178440000513,2000,1470,572
6.303906862000076,1968,1379,498
6.306636033999894,1941,1373,503
6.309365246999732,1936,1343,490
6.312092252999719,1933,1334,496
6.314821674999621,2044,1411,549
6.3175545550002425,2055,1417,533
6.320285686000716,2011,1456,563
6.323014065999814,1975,1408,525
6.325745488000393,1956,1375,506
6.328474284999174,1937,1360,498
6.331199414998991,1931,1310,469
6.333928796000691,1999,1402,546
6.336657592999472,2025,1411,539
6.33938597300039,2001,1437,555
6.3421148950001225,1974,1429,541
6.344843316999686,1951,1370,501
6.347564405999947,1941,1363,503
6.350290035999933,1934,1323,475
6.35302770799899,1974,1373,511
6.355760630000077,2026,1405,539
6.358492385999853,2010,1422,542
6.361228432999269,1985,1456,572
6.3639548549999745,1957,1374,497
6.36668340200049,1943,1366,498
6.3694101569999475,1931,1338,489
6.372136829000738,1936,1334,497
6.374912625999059,2055,1414,546
6.37764313200023,2063,1423,542
6.380372637000619,2022,1457,571
6.383100058999844,1981,1407,526
6.385830564000571,1951,1377,505
6.388560069999585,1941,1359,496
6.391285534000417,1932,1310,469
6.3940154560004885,2018,1408,542
6.396744085999671,2055,1421,542
6.399469300000419,2023,1447,557
6.402196971999729,1988,1435,542
6.404925019000075,1963,1378,507
6.407652898999004,1945,1373,507
6.410383529000683,1936,1327,479
6.413114326000141,1963,1373,525
6.416343290999066,1991,1402,539
6.419050713000615,1984,1410,544
6.421745842999371,1956,1425,551
6.4244378069997765,1938,1358,493
6.42712856199978,1931,1357,502
6.429820650999318,1927,1321,480
6.432511490000252,1952,1346,508
6.435199286999705,2064,1410,547
6.4378877500003,2052,1424,545
6.440574255999309,2011,1462,569
6.443261761000031,1978,1403,523
6.445954807999442,1951,1377,506
6.44864398000027,1936,1358,495
6.4513329429992154,1931,1308,478
6.454023156999028,2015,1408,553
6.456710287000533,2043,1414,543
6.459397668000747,2017,1441,559
6.462088297999799,1982,1431,544
6.464776135999273,1952,1374,499
6.467461975000333,1936,1366,505
6.47014756399949,1933,1328,479
6.472835152000698,1967,1370,523
6.4755202409996855,2054,1419,543
6.478207620999456,2040,1430,546
6.480896085000495,2002,1467,575
6.483585506999589,1970,1392,507
6.4862761789991055,1948,1377,511
6.4889632260001235,1935,1350,496
6.491651106000063,1932,1323,483
6.4943385280002985,2030,1410,549
6.497026450000703,2046,1422,544
6.499713704999522,2016,1446,561
6.502402169000561,1980,1424,534
6.505089549000331,1958,1376,500
6.507774804000292,1938,1370,507
6.510464225999385,1933,1322,480
6.513154148000467,1975,1376,529
6.515845820000322,2033,1414,544
6.518537451000157,2023,1426,550
6.52122687299925,1987,1464,572
6.5239136689997395,1963,1377,500
6.526601507999658,1947,1374,506
6.529289137999513,1936,1341,496
6.531977602000552,1934,1329,496
6.534665523999138,2022,1406,547
6.537353071000325,2031,1411,540
6.540041367999947,2001,1445,563
6.5427297900005215,1973,1407,527
6.545417502999044,1950,1367,499
6.548105591999047,1936,1360,501
6.5507959719998325,1930,1314,470
6.553485768999963,1989,1389,533
6.556172691000029,2033,1413,540
6.558898822000629,2017,1427,546
6.561602076999407,1983,1453,559
6.5642970409990085,1962,1374,496
6.566983087999688,1943,1371,506
6.569673718000558,1934,1338,486
6.572359431000223,1941,1344,506
6.575045269999464,2021,1404,543
6.577732317000482,2016,1410,537
6.580423696999787,1991,1447,561
6.5831127439996635,1963,1394,511
6.585802915999011,1945,1365,503
6.588493421999374,1936,1353,496
6.591180384999461,1930,1306,469
6.593867890000183,2013,1402,543
6.596555729000102,2046,1418,540
6.599249192999196,2026,1441,557
6.601942864999728,1989,1446,551
6.604632745000345,1961,1377,496
6.607317916999818,1941,1371,504
6.61000804700052,1934,1332,485
6.6126975110000785,1946,1358,511
6.615385183000399,2026,1410,543
6.618508646999544,2017,1418,542
6.621244861000378,1984,1456,568
6.6239741160006815,1959,1378,499
6.626703247000478,1940,1367,507
6.629430709999724,1935,1339,489
6.632155924000472,1930,1329,493
6.634921138000209,2019,1402,544
6.637650434999159,2025,1408,539
6.640378898999188,1995,1442,560
6.643104778999259,1968,1393,511
6.645833868000409,1939,1365,505
6.648561539999719,1936,1350,497
6.651286669999536,1931,1303,466
6.654014383999311,2002,1396,541
6.656743264000397,2031,1407,534
6.659469103000447,2006,1437,553
6.662198399999397,1978,1430,547
6.66493027999968,1953,1369,499
6.667655244000343,1937,1366,507
6.670381165999061,1934,1327,480
6.673106546000781,1968,1371,523
6.6758296349999,2017,1409,542
6.678563348999887,2011,1419,542
6.6812931040003605,1982,1456,567
6.684018317999289,1957,1374,497
6.6867468649998045,1938,1362,507
6.6894759539991355,1933,1337,486
6.692241958999148,1931,1331,497
6.694969005999155,2015,1403,544
6.697697595000136,2032,1408,530
6.700427267000123,1994,1443,560
6.703151772000638,1963,1393,511
6.705879653000011,1944,1363,500
6.708608741000717,1936,1349,496
6.711345247000281,1931,1301,465
6.714081001999148,1999,1394,541
6.71681042399905,2023,1406,530
6.719536762999269,2000,1430,547
6.722264685000482,1971,1424,538
6.724992523000765,1952,1366,496
6.727718486999947,1936,1358,497
6.730445700999553,1935,1323,479
6.733173414999328,1981,1374,527
6.735899044999314,2059,1417,543
6.7386254249995545,2035,1430,548
6.74135426400062,2000,1469,573
6.7440813110006275,1968,1381,499
6.746808775000318,1942,1376,509
6.749535822000325,1936,1342,489
6.752291368999067,1935,1335,497
6.755019873999117,2047,1417,549
6.757750630000373,2054,1420,539
6.760477634999916,2018,1457,567
6.763207099000283,1975,1408,525
6.7659472710001864,1947,1375,505
6.768679733999306,1936,1359,496
6.771406865000245,1930,1307,467
6.774135079000189,2038,1410,546
6.776864208999541,2078,1429,545
6.779589923000458,2045,1457,561
6.782320510999853,1998,1447,548
6.7850537249996705,1962,1387,507
6.787779604999741,1938,1374,506
6.790509985999961,1935,1329,479
6.793237698999292,1972,1375,527
6.7959624550003355,2031,1414,541
6.798688876999222,2018,1425,545
6.8014163820007525,1986,1461,573
6.80414422099966,1962,1376,497
6.8069109759999264,1941,1370,508
6.809639897999659,1935,1335,490
6.812365779000174,1935,1335,499
6.81509161699978,2011,1401,541
6.81781937300002,2004,1407,535
6.8210081289998925,1986,1440,560
6.823701217999769,1959,1391,523
6.826390555999751,1941,1360,502
6.829077477999817,1936,1336,483
6.831765066999651,1925,1314,481
6.834456821999993,2046,1409,548
6.837148286000229,2071,1424,539
6.839838248999513,2034,1456,560
6.842528421000679,1990,1430,538
6.845216301999244,1958,1378,503
6.847903973999564,1938,1370,511
6.850593854000181,1935,1326,481
6.853282984000543,1981,1379,528
6.855970156000694,2043,1419,546
6.858658869999999,2032,1429,549
6.86134787499941,1997,1466,571
6.86403688000064,1967,1381,500
6.866734426999756,1945,1372,508
6.869421098999737,1934,1344,495
6.872106855000311,1931,1328,496
6.874794277000547,2053,1414,548
6.877488115000233,2064,1424,544
6.880175869999221,2026,1457,563
6.882900626000264,1988,1420,528
6.885590214000331,1958,1379,501
6.888280678000228,1937,1366,501
6.890967850000379,1931,1319,475
6.893657397000425,1999,1391,535
6.89634773599937,2046,1421,542
6.899037365999902,2025,1435,551
6.901727455000582,1989,1456,557
6.904416502000458,1962,1376,499
6.907104673000504,1941,1372,506
6.909793386999809,1934,1337,490
6.9124821839996,1937,1346,505
6.915169813999455,2032,1408,545
6.917859736000537,2031,1418,539
6.920548242000223,2000,1454,562
6.923233621999316,1969,1398,525
6.9259209190004185,1951,1369,505
6.928617424000549,1936,1356,496
6.931307595999897,1933,1309,469
6.9339981009998155,2054,1411,545
6.936686773000474,2096,1428,543
6.939373904000604,2064,1461,560
6.942061992000163,2013,1464,559
6.94475053899987,1968,1391,503
6.947436836000634,1943,1382,511
6.950124049999431,1933,1339,490
6.952811679999286,1942,1360,511
6.955499227000473,1989,1397,542
6.958186981999461,1985,1405,534
6.960875404000035,1969,1441,564
6.963564993000546,1951,1380,508
6.966263373000402,1938,1360,498
6.968951086999368,1932,1343,493
6.971636300000682,1933,1303,473
6.974325888999374,2017,1399,544
6.977012102999652,2042,1411,538
6.979697691000183,2014,1437,554
6.982386113000757,1983,1427,539
6.98507470199911,1952,1372,498
6.987761082000361,1934,1363,508
6.990449879000153,1929,1323,478
6.993140467999183,1968,1369,524
6.99582905600073,2046,1413,541
6.998521311999866,2034,1426,547
7.0012103999997635,2000,1466,571
7.003896780999639,1969,1390,507
7.006585868999537,1943,1371,503
7.009274291000111,1935,1347,495
7.0120086299994,1930,1324,486
7.014724176999152,2025,1408,542
7.0174136820005515,2038,1413,535
7.020101562000491,2010,1445,560
7.022816108999905,1971,1415,529
7.025506906000373,1952,1369,499
7.028230787000211,1936,1360,501
7.030922459000067,1931,1318,475
7.033612047000133,2006,1390,531
7.03630059399984,2077,1426,547
7.0389875159999065,2058,1443,553
7.04167539700029,2007,1472,562
7.0443643189992144,1969,1391,502
7.047050657,1946,1379,511
7.04973832900032,1936,1344,489
7.052426168000238,1936,1343,500
7.055113173000791,2075,1423,550
7.057800053000392,2075,1434,546
7.060489433999464,2032,1467,567
7.063178771999446,1990,1418,525
7.065917153000555,1958,1385,507
7.068658283000332,1937,1365,506
7.071363287999702,1932,1317,475
7.074052834999748,2027,1407,547
7.076740799000618,2066,1429,542
7.07942776299933,2038,1453,557
7.082120809000116,1997,1456,551
7.08481668999957,1963,1383,501
7.087509902999955,1943,1375,508
7.090205533999324,1932,1333,487
7.092901871999857,1959,1360,523
7.095595003000199,2075,1424,549
7.09829017499942,2070,1439,554
7.100983680000354,2026,1474,576
7.103673644000082,1982,1405,511
7.106369649000044,1957,1382,511
7.1090598619994125,1936,1358,499
7.1117531590007275,1924,1317,482
7.114448373000414,2032,1413,555
7.117141794999043,2061,1424,544
7.119832967000548,2029,1455,562
7.122526097000446,1986,1437,542
7.125219143999857,1957,1378,503
7.127910650000558,1939,1373,508
7.130604071999187,1934,1327,480
7.133297534999656,1968,1376,528
7.135988665000696,2032,1414,541
7.138680546000614,2017,1418,543
7.141371592999349,1989,1459,567
7.144062473000304,1962,1377,499
7.14675393700054,1937,1367,503
7.149445524999464,1934,1343,491
7.1521353219995945,1931,1326,493
7.154861827999412,2051,1413,550
7.157557165999606,2064,1424,544
7.160272588000225,2026,1455,563
7.162964884999383,1985,1422,530
7.165657723999175,1953,1376,506
7.1683607710001525,1936,1365,503
7.171058317999268,1931,1318,473
7.173750406000181,1997,1390,539
7.176438952999888,2047,1418,542
7.179123166999489,2029,1436,550
7.181816588999936,1992,1461,560
7.184512260999327,1963,1378,498
7.187206640999648,1945,1374,508
7.18990160499925,1936,1339,486
7.192598068999359,1941,1345,503
7.195289449000484,2064,1420,547
7.197983996000403,2064,1430,543
7.20067762600047,2023,1461,566
7.2033684229991195,1983,1411,526
7.206068261999462,1958,1379,510
7.208765974999551,1936,1361,498
7.211461230999703,1936,1314,472
7.214155653000489,1982,1397,544
7.21685082499971,1986,1392,528
7.219543537999925,1978,1422,550
7.222239044000162,1958,1424,544
7.224978091000594,1939,1360,496
7.227683470999182,1933,1360,498
7.23038197599999,1928,1319,478
7.233077439999761,1963,1359,511
7.235768945000018,2036,1408,539
7.23846282500017,2032,1421,539
7.241159746999983,2000,1456,570
7.2438477109990345,1955,1376,497
7.246540715999799,1944,1370,505
7.249238721999063,1936,1345,495
7.251933268998982,1934,1316,487
7.254626566000297,2032,1408,547
7.257320487999095,2055,1421,544
7.260010660000262,2022,1450,561
7.262704414999462,1984,1424,539
7.265398211999127,1959,1375,503
7.268105634000676,1939,1367,511
7.2708171809990745,1933,1328,480
7.273509185999501,1972,1375,526
7.276227440999719,2026,1410,540
7.278916613000547,2008,1422,546
7.281611160000466,1982,1458,565
7.284308999000132,1958,1373,498
7.287003879000622,1939,1365,507
7.289700343000732,1934,1334,490
7.292394972999318,1932,1329,495
7.2950856869993,2011,1401,541
7.297780733999389,2014,1407,531
7.300476947000789,1990,1439,560
7.303171535999354,1967,1397,523
7.3058702500002255,1943,1363,498
7.308563963000779,1936,1356,496
7.311253593999936,1935,1311,471
7.313947016000384,2016,1394,538
7.316642771000261,2071,1424,542
7.319330193000496,2043,1445,556
7.322022447999188,2000,1461,560
7.324719120000736,1967,1382,502
7.327408084000126,1945,1377,508
7.330100297000172,1933,1341,484
7.332792761000746,1942,1355,510
7.335483266000665,2063,1419,550
7.338175355000203,2062,1429,546
7.34086686000046,2019,1466,571
7.34355715700076,1978,1408,528
7.346250913000404,1953,1376,511
7.3489449600001535,1936,1358,502
7.351635715000157,1929,1311,470
7.354328428000372,2034,1412,547
7.357018975000756,2069,1425,544
7.359708521998982,2034,1452,561
7.362401069000043,1994,1450,551
7.365094574999603,1966,1383,503
7.3677877049995,1938,1375,507
7.370501626999612,1934,1331,485
7.3732117990002735,1961,1370,528
7.375901179000721,2032,1414,545
7.378590893000364,2026,1424,542
7.381281440000748,1995,1460,573
7.383967362000476,1967,1389,509
7.38665974200012,1947,1371,506
7.389353622000272,1936,1347,494
7.392044293999788,1933,1317,486
7.394739590999961,2052,1411,546
7.397432555000705,2074,1424,542
7.400123601999439,2033,1456,561
7.40284148200044,1991,1433,537
7.405535738000253,1964,1380,506
7.40825336799935,1939,1372,507
7.410947955999291,1931,1326,479
7.413644252999802,2001,1387,531
7.416339092000271,2064,1425,547
7.419029930999386,2042,1441,551
7.421724353000172,2003,1472,571
7.424416982999901,1968,1388,500
7.42712115500035,1942,1376,506
7.429819577000671,1936,1344,492
7.4325157910006965,1932,1337,499
7.435207921000256,2064,1419,550
7.437899550999646,2066,1427,542
7.440591472999586,2022,1459,567
7.443286019999505,1982,1413,526
7.445981816999847,1954,1380,507
7.448676947000422,1938,1361,502
7.451367244000721,1932,1315,474
7.454061165999519,2000,1394,542
7.456752087999121,2035,1417,543
7.459443551999357,2019,1434,553
7.462142223999763,1985,1451,558
7.464838145999238,1958,1372,499
7.467528900999241,1937,1369,508
7.470233530999394,1931,1331,486
7.472930202999123,1945,1353,507
7.47561825000048,2026,1409,542
7.478306130999044,2023,1415,540
7.480992927999978,1993,1454,564
7.483679640999981,1967,1392,511
7.486371687999053,1948,1367,503
7.489067276999776,1936,1349,498
7.491759532000287,1921,1303,471
7.494453829000122,2018,1405,548
7.497148918000676,2053,1416,542
7.49984079800015,2026,1445,558
7.502536177998991,1988,1438,547
7.50523022500056,1955,1376,503
7.507922980999865,1943,1369,509
7.510618528000123,1935,1329,480
7.513313075000042,1968,1373,528
7.51599870499922,2035,1415,544
7.518694292999498,2032,1423,545
7.521388674000264,1997,1460,570
7.524079136999717,1965,1387,505
7.526772351000545,1943,1371,509
7.529464440000083,1936,1346,495
7.532153361999008,1927,1318,486
7.534874909000791,2023,1402,541
7.537572122000711,2060,1422,543
7.540266752999742,2023,1454,561
7.542957215999195,1985,1424,535
7.545650554999156,1957,1377,502
7.54834322699935,1942,1366,507
7.551033814999755,1930,1325,477
7.553725903999293,1997,1388,528
7.556417367999529,2061,1424,545
7.559107455999765,2040,1439,551
7.561799462000636,2000,1473,570
7.56449317499937,1966,1382,496
7.567183930999818,1943,1375,508
7.5699101030004385,1933,1342,489
7.5726161080001475,1933,1338,496
7.575307822000468,2047,1414,546
7.577995618999921,2062,1424,543
7.580682956999226,2019,1456,563
7.583368253999652,1982,1410,526
7.586058675999084,1954,1377,506
7.588747597999827,1937,1362,505
7.591435270000147,1935,1316,473
7.594122608999896,2000,1395,541
7.59681103100047,2046,1420,542
7.599497201999839,2027,1438,551
7.60218599899963,1989,1454,559
7.604877963000035,1959,1376,501
7.607566552000208,1943,1374,511
7.610255432000486,1933,1335,486
7.612954395999623,1947,1355,510
7.61564994299988,2062,1420,542
7.618339905999164,2061,1429,543
7.6210301619994425,2017,1466,570
7.623717291999128,1978,1407,526
7.6264051719990675,1952,1376,505
7.629129969000132,1939,1360,497
7.631820223999966,1934,1312,469
7.634510895999483,2018,1408,543
7.637202443000206,2046,1420,541
7.639891782000632,2022,1445,558
7.642582328999197,1987,1439,546
7.645269250999263,1959,1377,502
7.647956214999795,1940,1371,507
7.65064546999929,1935,1328,478
7.653333767000731,1972,1371,527
7.656019022000692,2060,1422,546
7.658707485999912,2044,1429,545
7.661397490999661,2006,1469,569
7.664082495999537,1971,1393,509
7.6667705019990535,1946,1378,506
7.669459257000199,1936,1351,496
7.672150970000075,1934,1321,486
7.674890767000761,2043,1417,549
7.67759277299956,2064,1424,542
7.680279820000578,2027,1455,560
7.682966907999798,1991,1430,538
7.685653288999674,1958,1379,502
7.688360793999891,1937,1370,507
7.6910683829992195,1933,1327,479
7.693840721000015,1979,1381,532
7.696572267999727,2032,1418,544
7.699272857000324,2014,1430,553
7.701968821000264,1984,1456,565
7.705473993999476,1958,1375,496
7.70822033299919,1942,1370,511
7.710917463000442,1935,1316,479
7.713612634999663,1983,1369,511
7.716308641000069,2054,1413,540
7.7190031459995225,2035,1427,546
7.721698026000013,1999,1462,576
7.724392572999932,1968,1383,502
7.727084537000337,1948,1373,511
7.7297820419989876,1933,1344,494
7.7324716719995195,1933,1327,491
7.735162385999502,2046,1413,547
7.737858849999611,2064,1425,542
7.740551397000672,2025,1458,562
7.743241610000041,1985,1421,530
7.745935282000573,1955,1378,507
7.748629453999456,1937,1365,507
7.751316625999607,1932,1311,469
7.754008173000329,1992,1392,535
7.756704594999974,2046,1420,544
7.759397183999681,2032,1437,549
7.762092855999072,1993,1459,560
7.764786277999519,1963,1379,501
7.767477408000559,1947,1375,511
7.77016883000033,1934,1340,487
7.7728845849997015,1936,1344,503
7.775583049000488,2026,1408,545
7.77827397100009,2027,1414,535
7.780962351000198,2000,1451,562
7.783649647999482,1968,1397,511
7.786341445000289,1946,1365,502
7.78903795000042,1936,1356,497
7.7917319139996835,1933,1305,466
7.794428752999011,2016,1402,543
7.79712230000041,2059,1418,540
7.799814055000752,2026,1442,555
7.802516809999361,1991,1446,547
7.80520923199947,1963,1377,500
7.807900238000002,1942,1374,509
7.81059499299954,1935,1331,482
7.813288580999142,1965,1363,525
7.815979670000161,2059,1419,547
7.818672216999403,2045,1424,545
7.82136430600076,2007,1465,570
7.824057686000742,1970,1395,510
7.826752441000281,1943,1375,505
7.829491488000713,1936,1350,496
7.832223659999727,1933,1315,482
7.834918999000365,2027,1409,549
7.837613503999819,2052,1421,538
7.840309051000077,2018,1451,560
7.842999472999509,1983,1425,538
7.845694436999111,1955,1374,499
7.848385233999579,1939,1366,504
7.851078031000725,1935,1325,482
7.853771619000327,1994,1376,527
7.856467333000182,2077,1427,546
7.859159379999255,2058,1443,550
7.861852009998984,2007,1479,577
7.86454559899903,1969,1391,507
7.86723518799954,1945,1382,511
7.869927567999184,1935,1346,492
7.872620115000245,1933,1333,495
7.875327370000377,2077,1424,551
7.878024375999303,2085,1437,547
7.880719089000195,2035,1467,571
7.883405718999711,1987,1424,528
7.886101015999884,1958,1388,506
7.888802604999,1939,1370,506
7.891494735000379,1931,1321,478
7.894188365999071,2016,1398,544
7.896882078999624,2080,1430,545
7.899568835000537,2054,1455,557
7.9022636730005615,2003,1470,561
7.904960137000671,1968,1389,505
7.907650683999236,1950,1381,508
7.91034602199943,1933,1341,493
7.9130401109996455,1941,1355,511
7.91573199099912,2064,1421,547
7.918425412999568,2063,1431,544
7.921122210000249,2017,1466,575
7.923815049000041,1977,1408,527
7.926510346000214,1953,1376,506
7.929204600999583,1936,1359,501
7.931894897999882,1931,1310,468
7.934589861999484,2046,1414,547
7.93728532500063,2089,1431,544
7.93997670600038,2054,1457,560
7.942671253000299,2002,1454,556
7.945365049999964,1968,1389,507
7.948058304998995,1947,1383,511
7.9507540600006905,1935,1338,482
7.953451441000652,1975,1376,526
7.956144529000085,2081,1424,547
7.958869617999881,2067,1444,551
7.961564331999398,2022,1481,576
7.964280169999256,1979,1402,511
7.966973841999788,1951,1383,511
7.9696695980001095,1933,1351,496
7.972363311000663,1926,1322,487
7.9750545249989955,2041,1415,550
7.97774669699902,2064,1424,539
7.980440035000356,2027,1456,561
7.983128040999873,1985,1426,535
7.985822337999707,1958,1381,502
7.988515134999034,1938,1370,509
7.991207682000095,1931,1326,479
7.993902770000204,1995,1383,531
7.996595859000081,2064,1423,542
7.9992871140002535,2037,1438,553
8.001979536000363,2000,1472,575
8.004673540999647,1968,1382,503
8.007366963000095,1951,1378,511
8.010063051999168,1938,1346,495
8.012803973999326,1928,1338,499
8.015532687999439,2038,1413,549
8.018229900999359,2045,1422,541
8.020922822999637,2012,1456,561
8.023613412000486,1975,1407,511
8.026308583999707,1954,1375,505
8.02900033900005,1938,1361,502
8.031716760999188,1936,1311,477
8.034425308000209,2026,1406,543
8.037120688999494,2087,1431,542
8.039812527000322,2058,1456,560
8.042510740999205,2003,1461,559
8.045212828999865,1968,1388,501
8.047908418000588,1946,1379,511
8.050602715000423,1936,1341,481
8.053297262000342,1953,1361,511
8.055987267000091,2044,1421,547
8.058681063999757,2037,1420,539
8.061377070000162,2001,1463,572
8.064067575000081,1969,1401,511
8.066761455000233,1943,1373,509
8.069456252000236,1936,1351,498
8.072149756999352,1933,1310,478
8.074878346000332,2010,1393,538
8.077593643,2047,1419,543
8.080299773999286,2016,1446,560
8.082994194999628,1984,1427,540
8.085685951000414,1957,1371,500
8.08837895599936,1939,1366,506
8.09106958600023,1932,1326,480
8.09376259199962,1975,1376,528
8.096460721999392,2041,1414,543
8.09915385199929,2027,1425,546
8.101845191000393,1993,1463,576
8.104541362999953,1967,1382,507
8.107232577000104,1946,1371,506
8.10992770700068,1935,1344,496
8.112626587000705,1934,1327,493
8.116880511999625,2022,1408,551
8.119576683999185,2016,1418,555
8.122275731000627,1985,1445,560
8.124974735999785,1958,1367,496
8.127668367000297,1939,1360,505
8.130363329999454,1935,1331,486
8.133057961000304,1937,1343,503
8.13575075799963,2019,1405,544
8.138447055000142,2026,1410,535
8.141141185000379,2000,1447,562
8.143835815000784,1970,1392,511
8.146531111999138,1950,1367,499
8.149227325999163,1938,1354,500
8.151918748000753,1935,1309,469
8.154611419999128,2021,1403,543
8.157305799999449,2059,1421,542
8.15999855500013,2026,1443,557
8.162693268999647,1988,1443,550
8.165387107999777,1963,1378,500
8.16807786299978,1942,1371,510
8.170769701999234,1933,1331,484
8.173461039999893,1961,1361,511
8.176156086999981,2067,1421,548
8.178884884000581,2059,1435,545
8.181577056000606,2015,1472,573
8.18426760299917,1973,1398,510
8.186958775000676,1948,1379,507
8.189650279999114,1936,1355,496
8.19234253600007,1931,1317,481
8.195035916000052,2047,1414,551
8.19772671300052,2084,1427,545
8.200423301999763,2045,1458,563
8.203115390000676,1997,1441,541
8.205809854000108,1962,1387,503
8.208506941999076,1938,1371,507
8.211199031000433,1932,1328,478
8.213892535999548,1985,1383,529
8.216588125000271,2071,1425,546
8.219280004999746,2056,1442,553
8.221973593999792,2009,1477,576
8.224667683000007,1973,1389,505
8.227359562999482,1949,1379,511
8.230053442999633,1935,1346,492
8.232793199000298,1927,1329,496
8.23549641200043,2057,1417,553
8.238185542999418,2073,1425,541
8.24088429800031,2026,1459,566
8.243580053000187,1987,1422,528
8.246276932999535,1954,1378,510
8.248971188999349,1936,1365,503
8.251663986000494,1935,1314,476
8.254359574000773,2003,1393,544
8.257055662999846,2062,1423,547
8.259747418000188,2029,1440,555
8.262442507000742,1997,1457,560
8.265138429000217,1965,1377,500
8.267828934000136,1946,1373,511
8.27052452299904,1934,1335,487
8.273220527999001,1942,1350,509
8.275913658000718,2033,1410,543
8.278607371999897,2030,1419,537
8.281301461000112,2000,1455,560
8.28398871600075,1969,1398,511
8.286682345998997,1947,1365,500
8.289376434999213,1936,1354,496
8.29206793999947,1931,1307,466
8.294760945000235,2016,1405,544
8.297454117000598,2057,1421,539
8.300144789000115,2029,1445,556
8.302871335999953,1975,1429,540
8.305570632999661,1958,1378,499
8.30826843000068,1941,1372,507
8.310958935999224,1933,1329,478
8.313652441000158,1962,1366,524
8.316341280000415,2019,1408,543
8.319029242999022,2006,1417,541
8.321720706999258,1984,1455,567
8.324412878999283,1958,1381,508
8.3271027589999,1939,1362,504
8.329797263999353,1935,1344,495
8.332487977999335,1931,1313,482
8.335180857999148,2021,1403,542
8.337880488999872,2032,1412,537
8.340575076999812,2007,1441,557
8.343266457999562,1975,1419,534
8.345959463000327,1952,1369,501
8.348652509999738,1940,1363,501
8.351343098000143,1936,1322,480
8.354035770000337,2003,1385,529
8.356728233999092,2097,1431,549
8.359419488999265,2078,1454,559
8.362112536000495,2021,1486,578
8.364814374999696,1978,1395,507
8.367509547000736,1948,1382,511
8.370204718999958,1936,1347,495
8.372897973998988,1929,1333,498
8.375587855000049,2010,1405,545
8.37828011000056,2014,1409,531
8.380971990000035,1988,1438,558
8.383664119999594,1965,1393,511
8.386355333999745,1947,1363,501
8.389048089000426,1935,1357,497
8.391740885999752,1930,1310,471
8.394431225000517,2007,1392,534
8.397120064000774,2066,1424,546
8.399811277000481,2035,1441,554
8.402504948999194,2000,1462,560
8.405198496000594,1965,1383,500
8.407890335000047,1943,1376,507
8.41058321499986,1936,1340,486
8.41327592900052,1942,1350,506
8.415966434000438,2043,1414,544
8.418656939000357,2037,1423,541
8.42134844499924,2004,1456,568
8.424038741999539,1973,1402,511
8.4267347469995,1949,1374,503
8.429430169000625,1935,1356,497
8.432125340999846,1931,1308,470
8.434873887999856,2007,1402,547
8.43757881000056,2038,1417,541
8.44027227299921,2013,1439,557
8.44296419499915,1979,1435,544
8.445659741999407,1959,1371,496
8.448354747999474,1939,1367,503
8.451046586000302,1934,1327,479
8.453742300000158,1968,1366,525
8.456432888999188,2046,1415,542
8.459124393999446,2032,1425,543
8.461814607999258,2000,1464,568
8.464510488000087,1968,1392,506
8.467201117999139,1943,1371,506
8.469894623000073,1936,1347,496
8.472587004000161,1927,1318,486
8.475279467000291,2041,1411,553
8.47797338899909,2069,1424,541
8.480666478000785,2032,1453,560
8.483359732999816,1990,1427,534
8.48605269700056,1957,1379,502
8.48874382699978,1935,1370,507
8.491436956999678,1934,1322,475
8.49412846300038,1990,1381,528
8.496825426000214,2061,1424,542
8.499517722999371,2037,1439,549
8.50221285400039,2000,1472,574
8.504905900999802,1968,1386,499
8.507597406000059,1947,1376,499
8.510293577999619,1936,1345,491
8.51298691699958,1932,1333,493
8.515678129999287,2032,1408,545
8.518371968999418,2036,1418,539
8.521064766000563,2010,1453,560
8.52375706299972,1973,1407,522
8.526449525999851,1950,1370,499
8.529147073000786,1936,1360,499
8.531839119999859,1917,1299,463
8.534532542000306,2000,1392,538
8.537226548000035,2047,1419,540
8.539917760999742,2029,1437,548
8.542610557999069,1987,1456,557
8.545304313000088,1965,1376,499
8.547994943999583,1943,1373,509
8.550689657000476,1935,1333,484
8.553382453999802,1940,1347,502
8.556074710000757,2026,1407,544
8.558767964999788,2021,1417,539
8.56146163700032,1998,1452,563
8.564153183999224,1967,1395,523
8.566875606000394,1943,1366,502
8.569570653000483,1936,1351,498
8.572265658000106,1929,1302,468
8.574957872000596,2000,1399,539
8.577652334999584,2029,1409,539
8.580345590999059,2007,1434,556
8.583041678999507,1978,1430,543
8.585732600999108,1952,1367,496
8.588423690000127,1941,1363,502
8.591115654000532,1935,1326,479
8.593821783999374,1968,1365,528
8.596516372999758,2032,1410,543
8.599208085999635,2025,1421,542
8.60192538299998,1989,1457,567
8.604627930000788,1967,1387,498
8.607318934999057,1948,1369,506
8.610011732000203,1934,1345,495
8.61270777900063,1931,1317,487
8.61539916000038,2031,1408,549
8.61809108200032,2047,1418,544
8.620784920000006,2015,1447,561
8.623478216999501,1982,1422,531
8.62617488899923,1945,1373,503
8.628868353000144,1937,1364,503
8.631560817000718,1936,1319,478
8.63425461299994,1968,1373,528
8.636983410999164,2009,1405,538
8.63968737399955,1999,1420,544
8.642379795999659,1973,1455,561
8.645072010000149,1953,1367,494
8.647762765000152,1938,1363,502
8.650457769999775,1936,1333,489
8.653150901000117,1935,1330,497
8.6558442810001,2006,1398,543
8.658540578000611,2006,1406,532
8.661232750000636,1989,1439,560
8.663922838999497,1963,1393,511
8.666615301999627,1949,1362,498
8.669308431999525,1937,1358,501
8.671998895999423,1936,1310,471
8.67469252599949,2016,1395,544
8.677409322999665,2066,1424,543
8.680103995000536,2035,1443,556
8.682797834000667,1997,1456,557
8.685493380999105,1968,1381,500
8.688218552999388,1950,1375,511
8.690914807999434,1936,1337,487
8.693606729999374,1954,1360,511
8.696301861000393,2032,1413,544
8.698992323999846,2029,1422,543
8.701686663000146,1997,1456,566
8.704381667999769,1961,1392,511
8.70707338200009,1937,1364,500
8.709766469999522,1925,1346,493
8.712460851000287,1920,1301,475
8.715151398000671,2000,1395,544
8.717845069999385,2027,1407,535
8.720541950000552,2007,1437,551
8.72323453900026,1978,1424,537
8.72592779399929,1955,1370,499
8.728620882000541,1942,1364,503
8.73131217899936,1934,1323,479
8.73400622599911,1967,1369,526
8.736699523000425,2032,1409,544
8.739391736999096,2019,1423,544
8.742085658999713,1987,1457,569
8.744779414000732,1963,1382,502
8.747469752999677,1946,1367,506
8.750164883000252,1936,1344,494
8.752858264000679,1942,1321,487
8.755548769000598,2033,1409,548
8.758241149000241,2046,1420,541
8.760935320999124,2013,1449,560
8.763625450999825,1981,1419,531
8.76632004000021,1954,1374,502
8.769013920000361,1936,1362,504
8.771704966999096,1934,1318,476
8.774397514000157,1985,1381,528
8.777090895000583,2035,1413,536
8.779780941000354,2017,1429,549
8.782471987999088,1989,1461,561
8.785208494000472,1961,1375,497
8.787900081999396,1940,1369,507
8.790591753999252,1935,1337,483
8.793282967999403,1936,1339,499
8.795974098000443,2042,1411,545
8.798667061999367,2045,1414,539
8.801361191999604,2009,1456,562
8.804050405999078,1975,1406,523
8.806744453000647,1942,1374,503
8.80943862499953,1936,1358,497
8.81212975500057,1933,1311,467
8.814852927000175,2002,1397,538
8.817549224000686,2035,1417,534
8.820263063000311,2016,1434,550
8.822953734999828,1984,1445,546
8.825646448000043,1953,1371,496
8.82834082899899,1941,1367,508
8.831032209000114,1936,1329,482
8.833725255999525,1953,1359,510
8.83641876100046,2047,1415,545
8.839138266999726,2042,1424,541
8.841843771999265,2005,1463,569
8.844538277000538,1968,1397,509
8.847235449000436,1949,1373,504
8.849931163000292,1937,1352,496
8.852624250999725,1932,1313,477
8.85531538199939,2011,1405,543
8.858009511999626,2026,1409,538
8.86070401699908,2001,1436,555
8.863393689000077,1971,1422,532
8.866088569999192,1951,1370,497
8.868781617000423,1936,1363,507
8.871472789000109,1932,1321,478
8.874167669000599,1963,1366,511
8.876860049000243,2003,1403,535
8.879556554000374,1995,1397,528
8.882255185000759,1971,1438,557
8.884948565000741,1953,1360,486
8.887637153999094,1936,1358,491
8.890329701000155,1931,1328,480
8.89302349799982,1926,1317,477
8.89571512799921,2033,1403,537
8.898409800000081,2039,1411,528
8.901103472000614,2007,1444,553
8.90379414400013,1973,1408,511
8.906488815999182,1949,1363,496
8.909182528999736,1936,1371,509
8.91187628499938,1930,1323,477
8.91457087299932,2000,1392,537
8.917263961999197,2062,1424,546
8.919949675999305,2032,1441,553
8.92264288899969,1999,1463,562
8.925340519999736,1967,1382,499
8.928031691999422,1941,1374,509
8.930722946999595,1931,1338,487
8.933415868999873,1936,1343,502
8.936106916000426,2056,1415,549
8.938798795999901,2058,1424,544
8.941492885000116,2016,1457,566
8.944215264999002,1981,1408,527
8.946908853999048,1953,1377,507
8.949604609000744,1936,1360,496
8.952297572999669,1934,1311,471
8.954987660999905,2027,1407,547
8.957684082999549,2070,1424,545
8.96037713000078,2035,1451,558
8.963067259999661,1996,1455,557
8.965763181999137,1964,1381,502
8.968455979000282,1939,1373,509
8.971146650999799,1933,1333,485
8.97383969799921,1955,1361,511
8.976536744999976,2046,1419,548
8.979230626000572,2042,1427,545
8.981925297999624,2001,1463,569
8.984620511000685,1969,1395,511
8.98731268300071,1946,1372,505
8.990003605000311,1936,1349,496
8.992696318999151,1927,1312,486
8.995389531999535,2052,1414,553
8.998082120999243,2086,1427,547
9.000777209999796,2045,1457,562
9.003469089999271,1999,1440,543
9.006160429000374,1965,1386,506
9.008857434000674,1941,1376,507
9.011548647999007,1932,1328,481
9.01429473600001,1985,1382,529
9.017027075000442,2065,1426,545
9.019717830000445,2047,1439,549
9.022412586000428,2002,1473,576
9.025109091000559,1968,1387,501
9.02779842900054,1947,1375,507
9.03049326799919,1936,1344,492
9.033190357000421,1933,1330,497
9.035881903999325,2039,1413,550
9.038576283999646,2058,1424,543
9.041277080999862,2018,1456,565
9.04397341999902,1981,1415,525
9.046667132999573,1955,1372,501
9.049360638999133,1936,1361,501
9.052053143999728,1933,1315,474
9.054747857999246,2000,1394,542
9.05744186300035,2080,1426,545
9.06013511799938,2053,1449,559
9.062856747999831,2003,1467,567
9.065552003999983,1969,1386,501
9.068269216999397,1943,1378,510
9.070963848000247,1935,1342,490
9.073660894999193,1941,1353,510
9.076355274999514,2042,1415,543
9.07904515500013,2038,1424,538
9.081739661000029,1999,1457,564
9.084449083000436,1973,1399,511
9.087151837999045,1947,1372,502
9.089844385000106,1936,1356,496
9.092537515000004,1931,1307,468
9.09523243699914,2021,1405,543
9.097924817000603,2054,1420,538
9.100619614000607,2019,1444,557
9.103313994999553,1986,1439,544
9.106012207999811,1958,1376,499
9.10870621399954,1936,1366,506
9.111398843999268,1933,1328,479
9.114093599000626,1968,1367,526
9.116786646000037,2053,1418,544
9.1194798180004,2041,1427,546
9.122175324000636,2003,1462,574
9.124867328999244,1968,1392,508
9.127559167000072,1946,1372,505
9.130254130999674,1936,1350,494
9.132946469999297,1931,1322,484
9.135641392000252,2032,1410,549
9.138338605000172,2057,1423,544
9.141034526999647,2022,1453,560
9.143726574000539,1983,1424,537
9.146422538000479,1955,1374,502
9.149116585000229,1939,1366,507
9.15180771499945,1933,1325,473
9.154502637000405,1989,1383,527
9.157196767000642,2064,1424,543
9.159888813999714,2037,1440,550
9.162584944999253,2000,1473,567
9.165304783000465,1966,1382,502
9.168009539000195,1945,1375,507
9.170707502000369,1935,1341,490
9.173402382999484,1934,1337,496
9.176092929999868,2029,1408,545
9.178786934999152,2032,1415,538
9.181481231998987,2000,1450,563
9.184173779000048,1970,1403,511
9.18690086800052,1947,1368,501
9.189593164999678,1936,1359,495
9.192285253000591,1931,1310,471
9.194975382999473,2004,1395,542
9.197679347000303,2029,1408,540
9.200374101999842,2003,1431,548
9.203065816000162,1978,1443,554
9.205756780000229,1949,1370,499
9.208459702000255,1939,1365,506
9.21115695700064,1931,1330,485
9.213852295999459,1941,1353,510
9.216546509000182,2005,1401,542
9.219239514999572,2000,1407,535
9.221934228000464,1975,1443,561
9.224627441999473,1958,1386,509
9.227318196999477,1938,1360,500
9.230013577000136,1936,1344,496
9.232711373999337,1930,1303,473
9.235404671000651,2039,1407,547
9.238111052000022,2071,1423,542
9.240850014999523,2032,1453,560
9.243556061999698,1991,1435,547
9.246252900999025,1961,1378,503
9.248945322999134,1938,1373,511
9.25163599500047,1929,1327,479
9.254330416999437,1989,1381,529
9.25702388100035,2085,1429,548
9.259713219000332,2066,1443,551
9.262407682999765,2019,1479,576
9.265102229999684,1974,1394,507
9.26779502699901,1951,1382,509
9.270489989999987,1933,1348,496
9.273183286999483,1929,1328,493
9.275874626000586,2055,1419,546
9.278568923000421,2067,1425,539
9.281263761999071,2029,1458,561
9.283956266999667,1984,1424,529
9.286647729999459,1955,1379,496
9.289337985999737,1940,1369,502
9.292029407999507,1933,1325,475
9.294721746000505,1993,1389,535
9.297413751999557,2043,1422,543
9.300108007000745,2029,1437,553
9.302818221000052,1991,1462,560
9.305514683999718,1962,1379,496
9.308239772999514,1942,1370,509
9.310934862000067,1934,1338,487
9.313629199999923,1936,1345,502
9.316323163999186,2068,1421,548
9.319014835999042,2074,1429,544
9.321710008000082,2029,1467,569
9.32440476299962,1984,1411,528
9.327098477000618,1954,1378,507
9.329794564999247,1936,1362,501
9.332489570999314,1929,1312,471
9.335190534000503,2018,1405,544
9.33788758099945,2059,1423,543
9.340579628000341,2023,1446,558
9.343271674999414,1989,1449,549
9.345963514000687,1959,1381,500
9.348655186000542,1939,1371,511
9.35134619100063,1933,1331,483
9.354039321000528,1955,1360,511
9.356736076999368,2032,1411,544
9.359431831999245,2031,1424,544
9.362130461999186,1999,1458,571
9.364827925999634,1968,1392,510
9.367521848000251,1941,1371,506
9.370216019999134,1936,1348,496
9.372909734000132,1931,1315,482
9.375602280000749,2017,1406,543
9.37829611899906,2032,1412,539
9.38099370800046,2007,1439,557
9.383686421000675,1979,1424,537
9.38638180199996,1951,1371,499
9.389078223999604,1939,1360,499
9.391771770999185,1930,1323,475
9.394462775999273,1981,1377,528
9.397154656000566,2045,1417,540
9.399848203000147,2032,1430,545
9.402540625000256,1998,1466,574
9.405236796999816,1964,1383,504
9.4079281359991,1941,1374,508
9.410622598999907,1937,1344,490
9.413316604999636,1931,1329,494
9.416007485000591,2042,1413,547
9.418703240000468,2059,1422,539
9.421395829000176,2020,1456,563
9.424086750999777,1984,1418,529
9.426784256000246,1954,1378,507
9.429481637000208,1940,1364,506
9.432172974999048,1937,1319,479
9.4349067309995,1996,1393,538
9.437605901999632,2032,1419,537
9.440302199000143,2012,1433,551
9.443036829999983,1975,1452,559
9.445745044000432,1950,1369,501
9.448442507000436,1933,1363,507
9.451134803999594,1929,1328,486
9.45383055899947,1930,1335,496
9.45652914799939,2041,1409,546
9.45922402799988,2042,1421,539
9.461921408999842,2006,1456,569
9.46461799700046,1971,1402,511
9.46730887800004,1951,1371,501
9.470003590999113,1939,1355,498
9.472698179999497,1936,1306,471
9.475390894000157,2053,1414,556
9.47808589899978,2097,1437,549
9.480779736999466,2063,1462,563
9.483472158999575,2013,1457,551
9.486164873000234,1969,1391,505
9.488859377999688,1943,1382,509
9.491551799999797,1935,1330,479
9.49424605599961,1977,1381,528
9.49693818599917,2086,1431,549
9.499630983000316,2073,1445,553
9.502322655000171,2023,1483,578
9.505018159999963,1984,1405,509
9.507709748999332,1953,1382,509
9.510405795999759,1937,1359,497
9.513101843000186,1929,1327,490
9.515794139999343,2017,1410,549
9.518489353000405,2033,1415,542
9.521186984000451,2003,1442,559
9.523880114000349,1974,1420,532
9.526575118999972,1952,1367,498
9.529270875000293,1937,1363,505
9.53196421299981,1935,1322,473
9.534657301999687,1999,1380,528
9.53735038999912,2074,1424,547
9.540042479000476,2057,1443,554
9.54273860899957,2003,1475,577
9.545434155999828,1969,1386,505
9.548126536999916,1947,1381,509
9.550851916999818,1936,1346,495
9.55354954699942,1927,1336,496
9.556268803000421,2055,1417,543
9.558963015999325,2065,1426,541
9.56165760499971,2023,1460,565
9.564351069000622,1983,1413,526
9.567043656999886,1958,1377,506
9.569741036999403,1936,1362,501
9.572433667999576,1934,1313,470
9.575125965000552,2009,1402,545
9.578661012999873,2070,1425,544
9.581364101999498,2040,1451,559
9.584058815999015,1984,1427,541
9.58675769599904,1955,1382,506
9.589452660000461,1937,1369,506
9.59214445699945,1931,1323,479
9.59486904500045,2007,1397,535
9.59756096700039,2078,1440,555
9.600276764000228,2055,1456,560
9.602969227998983,2005,1476,575
9.605662983000002,1968,1383,501
9.608357654999054,1950,1381,509
9.611048368999036,1936,1344,491
9.613743248999526,1936,1347,506
9.616439420999086,2071,1423,550
9.619132260000697,2071,1431,546
9.621826348000468,2015,1456,561
9.624520269999266,1985,1412,528
9.627212109000538,1954,1380,510
9.62990598900069,1936,1362,506
9.632599702999869,1934,1313,467
9.635289665999153,2032,1408,547
9.637983254999199,2081,1430,545
9.64067713499935,2053,1454,559
9.643401224000627,2003,1457,558
9.646103937999214,1968,1386,505
9.648802526000509,1946,1379,510
9.651496032000068,1935,1337,485
9.654188954000347,1951,1362,511
9.656881208999039,2011,1410,542
9.65957163100029,2005,1413,538
9.662265302999003,1984,1452,560
9.664960141999472,1958,1387,507
9.667650146999222,1946,1361,503
9.670343985000727,1935,1344,496
9.67303440700016,1931,1311,481
9.675732912999592,2017,1406,545
9.678446751000592,2037,1414,535
9.681152339999244,2013,1442,560
9.683846845000517,1981,1424,531
9.686541933999251,1953,1373,500
9.689234605999445,1937,1363,503
9.691924278000442,1936,1325,474
9.694616033000784,1979,1376,511
9.697316121999393,2032,1407,531
9.700029211000583,2017,1426,546
9.702738508000039,1987,1462,571
9.705438345999937,1963,1379,497
9.708130725999581,1945,1374,507
9.710862981999526,1920,1328,479
9.713559486999657,1934,1331,495
9.716278451000107,2029,1407,547
9.718965747999391,2034,1413,543
9.72165900300024,2005,1443,560
9.724355300000752,1971,1405,526
9.727047680000396,1948,1370,502
9.729742560999512,1934,1360,503
9.732437357999515,1935,1313,473
9.735129362999942,2002,1392,541
9.737824660000115,2043,1421,543
9.74051762399904,2025,1437,557
9.74320908700065,1988,1454,558
9.74590525900021,1963,1376,498
9.748599972999727,1938,1370,503
9.751294853000218,1933,1333,487
9.753992191999714,1941,1350,509
9.756686905000606,2032,1408,545
9.759378701999594,2029,1419,542
9.762074749000021,2000,1456,567
9.764771296000617,1969,1398,511
9.767464343000029,1949,1367,502
9.770159597999736,1937,1353,496
9.77285660400048,1934,1306,467
9.775551525999617,2033,1410,546
9.778244863999134,2077,1426,542
9.780939120000767,2042,1456,559
9.783635125000728,1998,1449,543
9.786333796999315,1967,1385,501
9.789027802000419,1942,1377,509
9.791721307999978,1935,1332,483
9.794416396000088,1973,1375,528
9.79711219300043,2060,1424,546
9.79980007300037,2039,1424,539
9.8024939120005,2001,1471,571
9.805186834000779,1969,1395,506
9.807878588999301,1948,1380,508
9.810570760999326,1936,1351,496
9.813264517000789,1933,1324,485
9.815958772000158,2007,1407,547
9.818654651999168,2026,1408,537
9.821349616000589,1999,1438,560
9.82404132999909,1973,1411,533
9.826735292999729,1943,1369,498
9.829430839999986,1938,1360,503
9.832122511999842,1934,1317,476
9.834839851000652,1980,1377,528
9.837535188999027,2032,1413,542
9.840255486000387,2016,1424,543
9.84294861700073,1982,1461,565
9.845684955000252,1959,1371,496
9.848395044000426,1943,1367,510
9.851089133000642,1934,1335,487
9.853782930000307,1935,1337,501
9.856477518000247,2036,1408,544
9.859167565000462,2037,1418,539
9.861861695999323,2006,1453,567
9.86455553399901,1974,1403,523
9.867246789999626,1953,1371,506
9.869942294999419,1937,1359,499
9.87264021699957,1934,1312,470
9.875331971999913,2009,1398,545
9.878028436000022,2055,1421,543
9.880724233000365,2022,1443,554
9.883415988000706,1991,1451,558
9.886108827000498,1960,1379,502
9.888812373999826,1941,1373,510
9.891510211999048,1933,1335,486
9.894204718000765,1952,1360,511
9.896910097999353,2055,1419,543
9.899597311999969,2039,1425,541
9.902290857999105,2002,1456,562
9.904986196999744,1973,1403,511
9.90767766099998,1952,1375,506
9.910371624000618,1936,1354,497
9.91306842099948,1933,1312,479
9.915757967999525,2025,1409,549
9.918451389999973,2054,1422,543
9.921148561999871,2030,1449,560
9.923840359000678,1989,1433,543
9.92653448999954,1959,1379,503
9.929227369999353,1941,1370,507
9.931917750000139,1933,1328,479
9.934611504999339,1973,1378,527
9.937306510999406,2079,1424,547
9.939998723999452,2063,1440,551
9.9426921459999,2015,1476,576
9.945389692999015,1977,1393,506
9.948083199000394,1950,1382,511
9.950777496000228,1936,1349,494
9.953472043000147,1932,1328,494
9.956162381000468,2018,1408,546
9.958885260999523,2032,1415,533
9.96157868299997,2001,1444,560
9.964292397000463,1973,1410,526
9.966984610999134,1953,1367,498
9.969679407999138,1938,1360,502
9.972375371000453,1936,1318,474
9.975068877000012,2011,1391,534
9.977766714999234,2083,1427,546
9.980461596000168,2061,1449,555
9.983153017999939,2007,1472,565
9.985848315000112,1970,1390,503
9.988542945000518,1945,1381,511
9.99123549199976,1934,1343,487
9.99392845500006,1936,1347,502
9.996620335999978,2027,1411,545
9.999306133000573,2030,1418,539
10.001998805000767,2000,1453,560
10.00469564299965,1968,1392,508
10.007388857000478,1947,1370,500
10.010084528999869,1936,1358,497
10.012778951000655,1936,1310,470
10.015523039999607,2005,1399,543
10.018257420000737,2038,1418,538
10.020954133999112,2015,1440,555
10.023646305999137,1979,1437,547
10.026340893999077,1954,1371,499
10.029038774999208,1938,1365,503
10.031730905000586,1926,1328,481
10.034425952000674,1974,1365,523
10.037119831999007,2094,1427,549
10.039811836999434,2083,1442,550
10.042508008998993,2027,1477,576
10.045203055999082,1982,1405,511
10.047925228000167,1953,1383,511
